PE FL                   SPECTRUM    ASCII       PEDS        1.60        
  -1
0124DI~4.SP
19/01/24
10:40:41.00
19/01/24
10:40:41.00


548.500000
1









LS45
420.00
10.00
10.00
SCAN
1
16
100
100
0
600
0
1
0
1
7
ON
435 365 
0 0 0
#HDR
-1
-1
#GR
NM
INT 
0.00002384185791015625
0.0
230.000000
0.500000
638
8
331.802000
0.008000
#DATA
230.000000	0.077000   
230.500000	0.076000   
231.000000	0.067000   
231.500000	0.084000   
232.000000	0.064000   
232.500000	0.090000   
233.000000	0.101000   
233.500000	0.049000   
234.000000	0.068000   
234.500000	0.032000   
235.000000	0.043000   
235.500000	0.066000   
236.000000	0.041000   
236.500000	0.054000   
237.000000	0.070999   
237.500000	0.061000   
238.000000	0.038000   
238.500000	0.029000   
239.000000	0.053000   
239.500000	0.031000   
240.000000	0.080000   
240.500000	0.075000   
241.000000	0.094000   
241.500000	0.076000   
242.000000	0.070000   
242.500000	0.064000   
243.000000	0.059000   
243.500000	0.008000   
244.000000	0.042000   
244.500000	0.045000   
245.000000	0.012000   
245.500000	0.053000   
246.000000	0.035000   
246.500000	0.050000   
247.000000	0.066000   
247.500000	0.076000   
248.000000	0.058000   
248.500000	0.076000   
249.000000	0.064000   
249.500000	0.036000   
250.000000	0.050000   
250.500000	0.032000   
251.000000	0.041000   
251.500000	0.064000   
252.000000	0.070000   
252.500000	0.071999   
253.000000	0.038000   
253.500000	0.013000   
254.000000	0.054000   
254.500000	0.037000   
255.000000	0.059000   
255.500000	0.048000   
256.000000	0.027000   
256.500000	0.030000   
257.000000	0.053000   
257.500000	0.050000   
258.000000	0.070000   
258.500000	0.056000   
259.000000	0.052000   
259.500000	0.048000   
260.000000	0.083000   
260.500000	0.057000   
261.000000	0.065000   
261.500000	0.041000   
262.000000	0.062000   
262.500000	0.065000   
263.000000	0.070999   
263.500000	0.067000   
264.000000	0.097000   
264.500000	0.100000   
265.000000	0.019000   
265.500000	0.023000   
266.000000	0.023000   
266.500000	0.060000   
267.000000	0.054000   
267.500000	0.052000   
268.000000	0.140000   
268.500000	0.132000   
269.000000	0.055000   
269.500000	0.067000   
270.000000	0.092000   
270.500000	0.094000   
271.000000	0.055000   
271.500000	0.114000   
272.000000	0.085000   
272.500000	0.093000   
273.000000	0.063000   
273.500000	0.057000   
274.000000	0.022000   
274.500000	0.044000   
275.000000	0.094000   
275.500000	0.085999   
276.000000	0.082000   
276.500000	0.109000   
277.000000	0.082000   
277.500000	0.050000   
278.000000	0.071999   
278.500000	0.117000   
279.000000	0.115000   
279.500000	0.098000   
280.000000	0.121000   
280.500000	0.121000   
281.000000	0.096000   
281.500000	0.079000   
282.000000	0.083000   
282.500000	0.078000   
283.000000	0.076000   
283.500000	0.085999   
284.000000	0.118000   
284.500000	0.116000   
285.000000	0.130000   
285.500000	0.152000   
286.000000	0.115000   
286.500000	0.085000   
287.000000	0.087999   
287.500000	0.086999   
288.000000	0.103000   
288.500000	0.132000   
289.000000	0.076000   
289.500000	0.094000   
290.000000	0.102000   
290.500000	0.114000   
291.000000	0.105000   
291.500000	0.113000   
292.000000	0.122000   
292.500000	0.110000   
293.000000	0.133000   
293.500000	0.124000   
294.000000	0.090000   
294.500000	0.091000   
295.000000	0.090000   
295.500000	0.085999   
296.000000	0.090000   
296.500000	0.132000   
297.000000	0.076000   
297.500000	0.138000   
298.000000	0.143000   
298.500000	0.155000   
299.000000	0.122000   
299.500000	0.073000   
300.000000	0.137000   
300.500000	0.128000   
301.000000	0.160000   
301.500000	0.185000   
302.000000	0.135000   
302.500000	0.135000   
303.000000	0.184000   
303.500000	0.115000   
304.000000	0.123000   
304.500000	0.080000   
305.000000	0.157000   
305.500000	0.179000   
306.000000	0.186000   
306.500000	0.126000   
307.000000	0.159000   
307.500000	0.171000   
308.000000	0.115000   
308.500000	0.097000   
309.000000	0.119000   
309.500000	0.179000   
310.000000	0.157000   
310.500000	0.150000   
311.000000	0.126000   
311.500000	0.189000   
312.000000	0.118000   
312.500000	0.108000   
313.000000	0.121000   
313.500000	0.177000   
314.000000	0.200000   
314.500000	0.133000   
315.000000	0.206000   
315.500000	0.166000   
316.000000	0.153000   
316.500000	0.148000   
317.000000	0.142000   
317.500000	0.148000   
318.000000	0.144000   
318.500000	0.164000   
319.000000	0.192000   
319.500000	0.199000   
320.000000	0.211000   
320.500000	0.158000   
321.000000	0.206000   
321.500000	0.206000   
322.000000	0.155000   
322.500000	0.160000   
323.000000	0.095000   
323.500000	0.129000   
324.000000	0.164000   
324.500000	0.190000   
325.000000	0.182000   
325.500000	0.193000   
326.000000	0.213000   
326.500000	0.167000   
327.000000	0.217000   
327.500000	0.224000   
328.000000	0.263000   
328.500000	0.288000   
329.000000	0.204000   
329.500000	0.200000   
330.000000	0.186000   
330.500000	0.214000   
331.000000	0.282000   
331.500000	0.179000   
332.000000	0.158000   
332.500000	0.189000   
333.000000	0.188000   
333.500000	0.236000   
334.000000	0.247000   
334.500000	0.245000   
335.000000	0.226000   
335.500000	0.237000   
336.000000	0.278000   
336.500000	0.192000   
337.000000	0.198000   
337.500000	0.204000   
338.000000	0.293000   
338.500000	0.228000   
339.000000	0.196000   
339.500000	0.234000   
340.000000	0.218000   
340.500000	0.181000   
341.000000	0.271000   
341.500000	0.225000   
342.000000	0.176000   
342.500000	0.141000   
343.000000	0.198000   
343.500000	0.267000   
344.000000	0.249000   
344.500000	0.189000   
345.000000	0.262000   
345.500000	0.213000   
346.000000	0.242000   
346.500000	0.212000   
347.000000	0.233000   
347.500000	0.264000   
348.000000	0.233000   
348.500000	0.226000   
349.000000	0.318000   
349.500000	0.298000   
350.000000	0.206000   
350.500000	0.163000   
351.000000	0.245000   
351.500000	0.277000   
352.000000	0.266000   
352.500000	0.304000   
353.000000	0.277000   
353.500000	0.276000   
354.000000	0.247000   
354.500000	0.228000   
355.000000	0.242000   
355.500000	0.254000   
356.000000	0.286000   
356.500000	0.335000   
357.000000	0.203000   
357.500000	0.353000   
358.000000	0.266000   
358.500000	0.291000   
359.000000	0.380000   
359.500000	0.303000   
360.000000	0.263000   
360.500000	0.276000   
361.000000	0.261000   
361.500000	0.295000   
362.000000	0.280000   
362.500000	0.316000   
363.000000	0.341000   
363.500000	0.319000   
364.000000	0.323000   
364.500000	0.288000   
365.000000	0.325000   
365.500000	0.373000   
366.000000	0.452000   
366.500000	0.353000   
367.000000	0.377000   
367.500000	0.357000   
368.000000	0.413000   
368.500000	0.436000   
369.000000	0.372000   
369.500000	0.331000   
370.000000	0.416000   
370.500000	0.464000   
371.000000	0.526000   
371.500000	0.512000   
372.000000	0.400000   
372.500000	0.491000   
373.000000	0.430000   
373.500000	0.483000   
374.000000	0.531000   
374.500000	0.484000   
375.000000	0.525000   
375.500000	0.425000   
376.000000	0.574000   
376.500000	0.576000   
377.000000	0.524000   
377.500000	0.527000   
378.000000	0.607000   
378.500000	0.629000   
379.000000	0.600000   
379.500000	0.638000   
380.000000	0.623000   
380.500000	0.569000   
381.000000	0.698000   
381.500000	0.665000   
382.000000	0.676000   
382.500000	0.709000   
383.000000	0.626000   
383.500000	0.644000   
384.000000	0.621000   
384.500000	0.729000   
385.000000	0.682000   
385.500000	0.827000   
386.000000	0.995000   
386.500000	0.798000   
387.000000	1.009000   
387.500000	0.833000   
388.000000	0.885000   
388.500000	1.047000   
389.000000	0.970000   
389.500000	0.873000   
390.000000	0.829000   
390.500000	0.801000   
391.000000	0.786000   
391.500000	0.969000   
392.000000	0.929000   
392.500000	0.923000   
393.000000	1.130000   
393.500000	1.108000   
394.000000	1.191000   
394.500000	1.324000   
395.000000	1.311000   
395.500000	1.310000   
396.000000	1.427000   
396.500000	1.558000   
397.000000	1.992000   
397.500000	2.259000   
398.000000	2.611000   
398.500000	3.513000   
399.000000	4.316000   
399.500000	5.675000   
400.000000	7.323000   
400.500000	9.778000   
401.000000	12.137000  
401.500000	15.396000  
402.000000	18.209000  
402.500000	22.469000  
403.000000	29.135000  
403.500000	33.022000  
404.000000	40.338000  
404.500000	46.408000  
405.000000	56.059000  
405.500000	63.883000  
406.000000	75.127000  
406.500000	85.944999  
407.000000	98.953000  
407.500000	110.144000 
408.000000	124.444000 
408.500000	140.492000 
409.000000	158.131000 
409.500000	171.593000 
410.000000	186.197000 
410.500000	202.419000 
411.000000	220.841000 
411.500000	234.555000 
412.000000	247.263000 
412.500000	265.223000 
413.000000	279.979000 
413.500000	289.975000 
414.000000	298.553000 
414.500000	308.185000 
415.000000	312.809000 
415.500000	319.886000 
416.000000	327.200000 
416.500000	330.262000 
417.000000	331.802000 
417.500000	330.887000 
418.000000	328.795000 
418.500000	321.310000 
419.000000	314.651000 
419.500000	305.885000 
420.000000	293.683000 
420.500000	283.025000 
421.000000	273.701000 
421.500000	255.147000 
422.000000	237.654000 
422.500000	218.375000 
423.000000	207.344000 
423.500000	190.430000 
424.000000	173.667000 
424.500000	155.121000 
425.000000	138.979000 
425.500000	118.990000 
426.000000	105.890000 
426.500000	93.712999  
427.000000	80.991000  
427.500000	70.253000  
428.000000	58.719000  
428.500000	48.897000  
429.000000	41.448000  
429.500000	33.973000  
430.000000	27.458000  
430.500000	23.595000  
431.000000	17.963000  
431.500000	14.087000  
432.000000	11.442000  
432.500000	9.140000   
433.000000	6.591000   
433.500000	5.900000   
434.000000	4.684000   
434.500000	3.749000   
435.000000	3.206000   
435.500000	2.880000   
436.000000	2.619000   
436.500000	2.390000   
437.000000	2.206000   
437.500000	2.513000   
438.000000	2.347000   
438.500000	2.218000   
439.000000	2.400000   
439.500000	2.443000   
440.000000	2.406000   
440.500000	2.125000   
441.000000	2.278000   
441.500000	2.256000   
442.000000	2.069000   
442.500000	2.240000   
443.000000	2.301000   
443.500000	2.367000   
444.000000	2.384000   
444.500000	2.588000   
445.000000	2.742000   
445.500000	2.539000   
446.000000	2.319000   
446.500000	2.388000   
447.000000	2.419000   
447.500000	2.303000   
448.000000	2.317000   
448.500000	2.207000   
449.000000	2.325000   
449.500000	2.367000   
450.000000	2.285000   
450.500000	2.320000   
451.000000	2.279000   
451.500000	2.035000   
452.000000	1.935000   
452.500000	2.114000   
453.000000	2.065000   
453.500000	1.738000   
454.000000	1.769000   
454.500000	1.700000   
455.000000	1.683000   
455.500000	1.863000   
456.000000	1.604000   
456.500000	1.631000   
457.000000	1.551000   
457.500000	1.512000   
458.000000	1.527000   
458.500000	1.297000   
459.000000	1.238000   
459.500000	1.300000   
460.000000	1.295000   
460.500000	1.307000   
461.000000	1.329000   
461.500000	1.207000   
462.000000	1.112000   
462.500000	1.268000   
463.000000	1.477000   
463.500000	1.293000   
464.000000	1.301000   
464.500000	1.347000   
465.000000	1.442000   
465.500000	1.315000   
466.000000	1.571000   
466.500000	1.579000   
467.000000	1.940000   
467.500000	2.066000   
468.000000	2.319000   
468.500000	2.255000   
469.000000	2.696000   
469.500000	3.020000   
470.000000	3.116000   
470.500000	3.388000   
471.000000	3.837000   
471.500000	3.595000   
472.000000	4.194000   
472.500000	4.712000   
473.000000	5.187000   
473.500000	5.710000   
474.000000	6.313000   
474.500000	6.567000   
475.000000	6.570000   
475.500000	7.096000   
476.000000	7.844000   
476.500000	8.353000   
477.000000	8.526000   
477.500000	9.199000   
478.000000	9.548999   
478.500000	9.864000   
479.000000	10.603000  
479.500000	10.954000  
480.000000	11.203000  
480.500000	11.719000  
481.000000	12.082000  
481.500000	13.381000  
482.000000	12.491000  
482.500000	13.197000  
483.000000	14.046000  
483.500000	13.698000  
484.000000	13.592000  
484.500000	14.102000  
485.000000	13.686000  
485.500000	13.979000  
486.000000	13.893000  
486.500000	13.444000  
487.000000	13.309000  
487.500000	13.340000  
488.000000	13.497000  
488.500000	12.915000  
489.000000	12.289000  
489.500000	12.085000  
490.000000	11.846000  
490.500000	11.378000  
491.000000	11.134000  
491.500000	10.343000  
492.000000	10.042000  
492.500000	9.661000   
493.000000	8.807000   
493.500000	8.143000   
494.000000	7.908000   
494.500000	7.233000   
495.000000	7.111000   
495.500000	6.651000   
496.000000	6.118000   
496.500000	5.573000   
497.000000	5.212000   
497.500000	4.783000   
498.000000	4.335000   
498.500000	3.904000   
499.000000	3.613000   
499.500000	3.306000   
500.000000	3.160000   
500.500000	2.887000   
501.000000	2.453000   
501.500000	2.056000   
502.000000	1.898000   
502.500000	1.620000   
503.000000	1.577000   
503.500000	1.295000   
504.000000	1.200000   
504.500000	1.123000   
505.000000	0.979000   
505.500000	0.967000   
506.000000	0.824000   
506.500000	0.697000   
507.000000	0.808000   
507.500000	0.750000   
508.000000	0.550000   
508.500000	0.465000   
509.000000	0.507000   
509.500000	0.508000   
510.000000	0.380000   
510.500000	0.452000   
511.000000	0.408000   
511.500000	0.414000   
512.000000	0.508000   
512.500000	0.321000   
513.000000	0.390000   
513.500000	0.324000   
514.000000	0.379000   
514.500000	0.322000   
515.000000	0.361000   
515.500000	0.384000   
516.000000	0.300000   
516.500000	0.226000   
517.000000	0.225000   
517.500000	0.266000   
518.000000	0.311000   
518.500000	0.297000   
519.000000	0.273000   
519.500000	0.240000   
520.000000	0.233000   
520.500000	0.289000   
521.000000	0.285000   
521.500000	0.227000   
522.000000	0.308000   
522.500000	0.265000   
523.000000	0.140000   
523.500000	0.202000   
524.000000	0.249000   
524.500000	0.200000   
525.000000	0.223000   
525.500000	0.222000   
526.000000	0.194000   
526.500000	0.165000   
527.000000	0.233000   
527.500000	0.196000   
528.000000	0.188000   
528.500000	0.205000   
529.000000	0.112000   
529.500000	0.207000   
530.000000	0.210000   
530.500000	0.271000   
531.000000	0.185000   
531.500000	0.141000   
532.000000	0.157000   
532.500000	0.231000   
533.000000	0.218000   
533.500000	0.167000   
534.000000	0.217000   
534.500000	0.205000   
535.000000	0.186000   
535.500000	0.176000   
536.000000	0.216000   
536.500000	0.150000   
537.000000	0.112000   
537.500000	0.152000   
538.000000	0.094000   
538.500000	0.151000   
539.000000	0.147000   
539.500000	0.216000   
540.000000	0.193000   
540.500000	0.263000   
541.000000	0.180000   
541.500000	0.158000   
542.000000	0.132000   
542.500000	0.172000   
543.000000	0.158000   
543.500000	0.117000   
544.000000	0.193000   
544.500000	0.199000   
545.000000	0.177000   
545.500000	0.148000   
546.000000	0.191000   
546.500000	0.204000   
547.000000	0.147000   
547.500000	0.125000   
548.000000	0.146000   
548.500000	0.144000   

