PE FL                   SPECTRUM    ASCII       PEDS        1.60        
  -1
01800A~1.SP
19/01/24
10:46:43.00
19/01/24
10:46:43.00


548.500000
1









LS45
460.00
10.00
10.00
SCAN
1
16
100
100
0
600
0
1
0
1
7
ON
435 365 
0 0 0
#HDR
-1
-1
#GR
NM
INT 
0.00002384185791015625
0.0
230.000000
0.500000
638
8
239.098000
0.035000
#DATA
230.000000	1.412000   
230.500000	1.478000   
231.000000	1.251000   
231.500000	1.253000   
232.000000	1.277000   
232.500000	1.124000   
233.000000	0.978000   
233.500000	0.950000   
234.000000	1.012000   
234.500000	0.806000   
235.000000	0.734000   
235.500000	0.737000   
236.000000	0.811000   
236.500000	0.687000   
237.000000	0.525000   
237.500000	0.539000   
238.000000	0.649000   
238.500000	0.623000   
239.000000	0.611000   
239.500000	0.583000   
240.000000	0.581000   
240.500000	0.716000   
241.000000	0.746000   
241.500000	0.811000   
242.000000	0.824000   
242.500000	0.895000   
243.000000	0.903000   
243.500000	1.074000   
244.000000	1.003000   
244.500000	1.106000   
245.000000	1.059000   
245.500000	1.253000   
246.000000	1.159000   
246.500000	1.119000   
247.000000	1.265000   
247.500000	1.366000   
248.000000	1.263000   
248.500000	1.266000   
249.000000	1.368000   
249.500000	1.209000   
250.000000	1.285000   
250.500000	1.181000   
251.000000	1.149000   
251.500000	0.983000   
252.000000	1.064000   
252.500000	1.060000   
253.000000	1.038000   
253.500000	0.842000   
254.000000	0.848000   
254.500000	0.684000   
255.000000	0.610000   
255.500000	0.396000   
256.000000	0.415000   
256.500000	0.385000   
257.000000	0.280000   
257.500000	0.270000   
258.000000	0.289000   
258.500000	0.285000   
259.000000	0.207000   
259.500000	0.155000   
260.000000	0.100000   
260.500000	0.098000   
261.000000	0.065000   
261.500000	0.039000   
262.000000	0.065000   
262.500000	0.048000   
263.000000	0.042000   
263.500000	0.095000   
264.000000	0.114000   
264.500000	0.070000   
265.000000	0.112000   
265.500000	0.070999   
266.000000	0.065000   
266.500000	0.082000   
267.000000	0.073000   
267.500000	0.059000   
268.000000	0.077000   
268.500000	0.091000   
269.000000	0.112000   
269.500000	0.065000   
270.000000	0.098000   
270.500000	0.076000   
271.000000	0.085999   
271.500000	0.094000   
272.000000	0.113000   
272.500000	0.036000   
273.000000	0.069000   
273.500000	0.107000   
274.000000	0.054000   
274.500000	0.068000   
275.000000	0.093000   
275.500000	0.115000   
276.000000	0.091000   
276.500000	0.089000   
277.000000	0.098000   
277.500000	0.091000   
278.000000	0.079000   
278.500000	0.035000   
279.000000	0.054000   
279.500000	0.086999   
280.000000	0.143000   
280.500000	0.095000   
281.000000	0.113000   
281.500000	0.127000   
282.000000	0.132000   
282.500000	0.105000   
283.000000	0.102000   
283.500000	0.127000   
284.000000	0.129000   
284.500000	0.128000   
285.000000	0.124000   
285.500000	0.099000   
286.000000	0.122000   
286.500000	0.115000   
287.000000	0.119000   
287.500000	0.120000   
288.000000	0.094000   
288.500000	0.139000   
289.000000	0.163000   
289.500000	0.130000   
290.000000	0.163000   
290.500000	0.151000   
291.000000	0.221000   
291.500000	0.161000   
292.000000	0.178000   
292.500000	0.188000   
293.000000	0.182000   
293.500000	0.139000   
294.000000	0.143000   
294.500000	0.138000   
295.000000	0.172000   
295.500000	0.207000   
296.000000	0.205000   
296.500000	0.172000   
297.000000	0.228000   
297.500000	0.228000   
298.000000	0.142000   
298.500000	0.193000   
299.000000	0.236000   
299.500000	0.197000   
300.000000	0.209000   
300.500000	0.301000   
301.000000	0.302000   
301.500000	0.295000   
302.000000	0.308000   
302.500000	0.201000   
303.000000	0.254000   
303.500000	0.249000   
304.000000	0.254000   
304.500000	0.271000   
305.000000	0.262000   
305.500000	0.263000   
306.000000	0.275000   
306.500000	0.264000   
307.000000	0.237000   
307.500000	0.309000   
308.000000	0.273000   
308.500000	0.244000   
309.000000	0.291000   
309.500000	0.234000   
310.000000	0.311000   
310.500000	0.362000   
311.000000	0.274000   
311.500000	0.225000   
312.000000	0.326000   
312.500000	0.358000   
313.000000	0.220000   
313.500000	0.234000   
314.000000	0.276000   
314.500000	0.328000   
315.000000	0.386000   
315.500000	0.326000   
316.000000	0.396000   
316.500000	0.393000   
317.000000	0.335000   
317.500000	0.334000   
318.000000	0.407000   
318.500000	0.424000   
319.000000	0.293000   
319.500000	0.289000   
320.000000	0.396000   
320.500000	0.351000   
321.000000	0.354000   
321.500000	0.492000   
322.000000	0.460000   
322.500000	0.440000   
323.000000	0.492000   
323.500000	0.495000   
324.000000	0.456000   
324.500000	0.427000   
325.000000	0.333000   
325.500000	0.441000   
326.000000	0.462000   
326.500000	0.435000   
327.000000	0.458000   
327.500000	0.552000   
328.000000	0.533000   
328.500000	0.438000   
329.000000	0.372000   
329.500000	0.426000   
330.000000	0.532000   
330.500000	0.507000   
331.000000	0.547000   
331.500000	0.485000   
332.000000	0.487000   
332.500000	0.444000   
333.000000	0.555000   
333.500000	0.546000   
334.000000	0.481000   
334.500000	0.505000   
335.000000	0.532000   
335.500000	0.439000   
336.000000	0.440000   
336.500000	0.476000   
337.000000	0.558000   
337.500000	0.571000   
338.000000	0.533000   
338.500000	0.511000   
339.000000	0.523000   
339.500000	0.384000   
340.000000	0.362000   
340.500000	0.384000   
341.000000	0.394000   
341.500000	0.454000   
342.000000	0.458000   
342.500000	0.401000   
343.000000	0.408000   
343.500000	0.484000   
344.000000	0.461000   
344.500000	0.469000   
345.000000	0.520000   
345.500000	0.550000   
346.000000	0.523000   
346.500000	0.409000   
347.000000	0.502000   
347.500000	0.484000   
348.000000	0.467000   
348.500000	0.465000   
349.000000	0.384000   
349.500000	0.443000   
350.000000	0.459000   
350.500000	0.401000   
351.000000	0.461000   
351.500000	0.435000   
352.000000	0.526000   
352.500000	0.379000   
353.000000	0.355000   
353.500000	0.442000   
354.000000	0.391000   
354.500000	0.358000   
355.000000	0.452000   
355.500000	0.384000   
356.000000	0.390000   
356.500000	0.344000   
357.000000	0.326000   
357.500000	0.392000   
358.000000	0.376000   
358.500000	0.324000   
359.000000	0.435000   
359.500000	0.358000   
360.000000	0.428000   
360.500000	0.365000   
361.000000	0.392000   
361.500000	0.444000   
362.000000	0.310000   
362.500000	0.290000   
363.000000	0.321000   
363.500000	0.360000   
364.000000	0.391000   
364.500000	0.340000   
365.000000	0.324000   
365.500000	0.301000   
366.000000	0.304000   
366.500000	0.286000   
367.000000	0.236000   
367.500000	0.299000   
368.000000	0.287000   
368.500000	0.323000   
369.000000	0.348000   
369.500000	0.369000   
370.000000	0.243000   
370.500000	0.175000   
371.000000	0.290000   
371.500000	0.281000   
372.000000	0.232000   
372.500000	0.344000   
373.000000	0.343000   
373.500000	0.328000   
374.000000	0.320000   
374.500000	0.305000   
375.000000	0.349000   
375.500000	0.306000   
376.000000	0.214000   
376.500000	0.252000   
377.000000	0.313000   
377.500000	0.297000   
378.000000	0.386000   
378.500000	0.312000   
379.000000	0.282000   
379.500000	0.340000   
380.000000	0.324000   
380.500000	0.341000   
381.000000	0.347000   
381.500000	0.357000   
382.000000	0.277000   
382.500000	0.280000   
383.000000	0.379000   
383.500000	0.351000   
384.000000	0.282000   
384.500000	0.280000   
385.000000	0.251000   
385.500000	0.287000   
386.000000	0.237000   
386.500000	0.319000   
387.000000	0.304000   
387.500000	0.288000   
388.000000	0.345000   
388.500000	0.288000   
389.000000	0.279000   
389.500000	0.308000   
390.000000	0.289000   
390.500000	0.295000   
391.000000	0.267000   
391.500000	0.289000   
392.000000	0.284000   
392.500000	0.246000   
393.000000	0.295000   
393.500000	0.357000   
394.000000	0.297000   
394.500000	0.312000   
395.000000	0.314000   
395.500000	0.304000   
396.000000	0.314000   
396.500000	0.312000   
397.000000	0.348000   
397.500000	0.354000   
398.000000	0.283000   
398.500000	0.387000   
399.000000	0.416000   
399.500000	0.342000   
400.000000	0.306000   
400.500000	0.262000   
401.000000	0.336000   
401.500000	0.371000   
402.000000	0.296000   
402.500000	0.331000   
403.000000	0.337000   
403.500000	0.375000   
404.000000	0.264000   
404.500000	0.344000   
405.000000	0.387000   
405.500000	0.434000   
406.000000	0.276000   
406.500000	0.337000   
407.000000	0.240000   
407.500000	0.354000   
408.000000	0.365000   
408.500000	0.430000   
409.000000	0.431000   
409.500000	0.390000   
410.000000	0.462000   
410.500000	0.453000   
411.000000	0.448000   
411.500000	0.438000   
412.000000	0.465000   
412.500000	0.465000   
413.000000	0.412000   
413.500000	0.498000   
414.000000	0.386000   
414.500000	0.421000   
415.000000	0.499000   
415.500000	0.519000   
416.000000	0.581000   
416.500000	0.503000   
417.000000	0.495000   
417.500000	0.480000   
418.000000	0.558000   
418.500000	0.499000   
419.000000	0.449000   
419.500000	0.477000   
420.000000	0.529000   
420.500000	0.500000   
421.000000	0.565999   
421.500000	0.553000   
422.000000	0.542000   
422.500000	0.587000   
423.000000	0.592000   
423.500000	0.528000   
424.000000	0.590000   
424.500000	0.562000   
425.000000	0.615000   
425.500000	0.595000   
426.000000	0.501000   
426.500000	0.617000   
427.000000	0.554000   
427.500000	0.552000   
428.000000	0.572000   
428.500000	0.561000   
429.000000	0.765000   
429.500000	0.574000   
430.000000	0.642000   
430.500000	0.598000   
431.000000	0.589000   
431.500000	0.682000   
432.000000	0.628000   
432.500000	0.589000   
433.000000	0.654000   
433.500000	0.793000   
434.000000	0.697000   
434.500000	0.744000   
435.000000	0.861000   
435.500000	0.941999   
436.000000	1.022000   
436.500000	1.140000   
437.000000	1.194000   
437.500000	1.476000   
438.000000	1.905000   
438.500000	2.311000   
439.000000	2.918000   
439.500000	4.097000   
440.000000	5.457000   
440.500000	7.286000   
441.000000	9.236000   
441.500000	11.320000  
442.000000	14.327000  
442.500000	17.948000  
443.000000	21.819000  
443.500000	25.748000  
444.000000	31.417000  
444.500000	38.163000  
445.000000	44.293000  
445.500000	51.550000  
446.000000	57.806000  
446.500000	68.369000  
447.000000	78.384000  
447.500000	89.387000  
448.000000	100.029000 
448.500000	114.221000 
449.000000	120.916000 
449.500000	133.939000 
450.000000	145.123000 
450.500000	159.223000 
451.000000	169.306000 
451.500000	178.404000 
452.000000	187.993000 
452.500000	198.391000 
453.000000	204.847000 
453.500000	216.920000 
454.000000	221.138000 
454.500000	226.756000 
455.000000	230.581000 
455.500000	232.136000 
456.000000	234.122000 
456.500000	234.497000 
457.000000	239.098000 
457.500000	234.400000 
458.000000	226.304000 
458.500000	224.226000 
459.000000	214.324000 
459.500000	207.413000 
460.000000	196.749000 
460.500000	188.118000 
461.000000	176.796000 
461.500000	171.883000 
462.000000	156.652000 
462.500000	141.780000 
463.000000	131.987000 
463.500000	122.459000 
464.000000	109.320000 
464.500000	99.483999  
465.000000	85.952000  
465.500000	77.729000  
466.000000	68.260000  
466.500000	60.732000  
467.000000	51.957000  
467.500000	45.242000  
468.000000	35.331000  
468.500000	29.898000  
469.000000	24.698000  
469.500000	19.891000  
470.000000	15.390000  
470.500000	12.597000  
471.000000	9.749000   
471.500000	8.303000   
472.000000	6.510000   
472.500000	5.441000   
473.000000	4.333000   
473.500000	3.736000   
474.000000	3.015000   
474.500000	2.536000   
475.000000	2.402000   
475.500000	2.298000   
476.000000	2.072000   
476.500000	2.065000   
477.000000	1.691000   
477.500000	1.690000   
478.000000	1.790000   
478.500000	1.918000   
479.000000	1.736000   
479.500000	1.742000   
480.000000	1.902000   
480.500000	2.015000   
481.000000	1.992000   
481.500000	1.878000   
482.000000	2.131000   
482.500000	2.411000   
483.000000	2.535000   
483.500000	2.627000   
484.000000	2.805000   
484.500000	3.110000   
485.000000	3.093000   
485.500000	3.749000   
486.000000	4.336000   
486.500000	5.094000   
487.000000	5.450000   
487.500000	5.913000   
488.000000	6.147000   
488.500000	6.665000   
489.000000	7.162000   
489.500000	8.116000   
490.000000	8.542999   
490.500000	9.199999   
491.000000	9.712999   
491.500000	10.775000  
492.000000	10.380000  
492.500000	10.881000  
493.000000	11.676000  
493.500000	12.784000  
494.000000	13.501000  
494.500000	12.670000  
495.000000	13.042000  
495.500000	13.591000  
496.000000	14.215000  
496.500000	13.245000  
497.000000	12.755000  
497.500000	12.567000  
498.000000	12.021000  
498.500000	12.566000  
499.000000	12.392000  
499.500000	10.836000  
500.000000	10.542000  
500.500000	10.781000  
501.000000	9.484000   
501.500000	9.214000   
502.000000	8.888000   
502.500000	8.614000   
503.000000	7.676000   
503.500000	7.245000   
504.000000	6.905000   
504.500000	6.196000   
505.000000	5.161000   
505.500000	4.758000   
506.000000	4.051000   
506.500000	3.473000   
507.000000	3.144000   
507.500000	3.169000   
508.000000	2.476000   
508.500000	2.197000   
509.000000	1.963000   
509.500000	1.669000   
510.000000	1.396000   
510.500000	1.266000   
511.000000	1.245000   
511.500000	1.011000   
512.000000	0.855000   
512.500000	0.832000   
513.000000	0.748000   
513.500000	0.741000   
514.000000	0.653000   
514.500000	0.626000   
515.000000	0.603000   
515.500000	0.597000   
516.000000	0.536000   
516.500000	0.461000   
517.000000	0.497000   
517.500000	0.531000   
518.000000	0.556000   
518.500000	0.543000   
519.000000	0.567999   
519.500000	0.562000   
520.000000	0.555000   
520.500000	0.645000   
521.000000	0.687000   
521.500000	0.726000   
522.000000	0.740000   
522.500000	0.827000   
523.000000	0.934000   
523.500000	0.750000   
524.000000	0.965000   
524.500000	1.104000   
525.000000	1.126000   
525.500000	1.196000   
526.000000	1.312000   
526.500000	1.495000   
527.000000	1.563000   
527.500000	1.506000   
528.000000	1.653000   
528.500000	1.716000   
529.000000	2.010000   
529.500000	2.134000   
530.000000	2.103000   
530.500000	2.420000   
531.000000	2.497000   
531.500000	2.551000   
532.000000	2.575000   
532.500000	3.001000   
533.000000	3.157000   
533.500000	3.071000   
534.000000	2.991000   
534.500000	3.472000   
535.000000	3.506000   
535.500000	3.484000   
536.000000	3.547000   
536.500000	3.573000   
537.000000	3.825000   
537.500000	4.084000   
538.000000	3.712000   
538.500000	3.720000   
539.000000	3.786000   
539.500000	3.981000   
540.000000	3.797000   
540.500000	3.971000   
541.000000	3.810000   
541.500000	4.169000   
542.000000	4.082000   
542.500000	3.754000   
543.000000	3.778000   
543.500000	3.776000   
544.000000	3.318000   
544.500000	3.053000   
545.000000	3.272000   
545.500000	3.142000   
546.000000	2.970000   
546.500000	3.206000   
547.000000	2.846000   
547.500000	2.940000   
548.000000	2.457000   
548.500000	2.131000   

