PE FL                   SPECTRUM    ASCII       PEDS        1.60        
  -1
017002~1.SP
19/01/24
10:45:13.00
19/01/24
10:45:13.00


548.500000
1









LS45
450.00
10.00
10.00
SCAN
1
16
100
100
0
600
0
1
0
1
7
ON
435 365 
0 0 0
#HDR
-1
-1
#GR
NM
INT 
0.00002384185791015625
0.0
230.000000
0.500000
638
8
249.041000
0.008000
#DATA
230.000000	0.187000   
230.500000	0.280000   
231.000000	0.207000   
231.500000	0.195000   
232.000000	0.173000   
232.500000	0.171000   
233.000000	0.178000   
233.500000	0.163000   
234.000000	0.255000   
234.500000	0.191000   
235.000000	0.233000   
235.500000	0.237000   
236.000000	0.172000   
236.500000	0.228000   
237.000000	0.245000   
237.500000	0.194000   
238.000000	0.173000   
238.500000	0.229000   
239.000000	0.201000   
239.500000	0.252000   
240.000000	0.312000   
240.500000	0.301000   
241.000000	0.285000   
241.500000	0.283000   
242.000000	0.313000   
242.500000	0.285000   
243.000000	0.412000   
243.500000	0.272000   
244.000000	0.223000   
244.500000	0.192000   
245.000000	0.299000   
245.500000	0.245000   
246.000000	0.345000   
246.500000	0.231000   
247.000000	0.195000   
247.500000	0.169000   
248.000000	0.269000   
248.500000	0.177000   
249.000000	0.158000   
249.500000	0.164000   
250.000000	0.131000   
250.500000	0.108000   
251.000000	0.128000   
251.500000	0.089000   
252.000000	0.114000   
252.500000	0.090000   
253.000000	0.101000   
253.500000	0.092000   
254.000000	0.094000   
254.500000	0.085999   
255.000000	0.030000   
255.500000	0.056000   
256.000000	0.091000   
256.500000	0.101000   
257.000000	0.050000   
257.500000	0.063000   
258.000000	0.044000   
258.500000	0.053000   
259.000000	0.074000   
259.500000	0.031000   
260.000000	0.043000   
260.500000	0.080000   
261.000000	0.059000   
261.500000	0.085999   
262.000000	0.054000   
262.500000	0.021000   
263.000000	0.048000   
263.500000	0.057000   
264.000000	0.044000   
264.500000	0.036000   
265.000000	0.029000   
265.500000	0.036000   
266.000000	0.008000   
266.500000	0.044000   
267.000000	0.063000   
267.500000	0.020000   
268.000000	0.008999   
268.500000	0.042000   
269.000000	0.048000   
269.500000	0.059000   
270.000000	0.024000   
270.500000	0.054000   
271.000000	0.044000   
271.500000	0.053000   
272.000000	0.081000   
272.500000	0.085000   
273.000000	0.124000   
273.500000	0.057000   
274.000000	0.061000   
274.500000	0.071999   
275.000000	0.069000   
275.500000	0.032000   
276.000000	0.032000   
276.500000	0.043000   
277.000000	0.062000   
277.500000	0.075000   
278.000000	0.054000   
278.500000	0.076000   
279.000000	0.068000   
279.500000	0.049000   
280.000000	0.080000   
280.500000	0.071999   
281.000000	0.050000   
281.500000	0.056000   
282.000000	0.058000   
282.500000	0.048000   
283.000000	0.038000   
283.500000	0.078000   
284.000000	0.047000   
284.500000	0.103000   
285.000000	0.089000   
285.500000	0.067000   
286.000000	0.057000   
286.500000	0.050000   
287.000000	0.074000   
287.500000	0.065000   
288.000000	0.086999   
288.500000	0.093000   
289.000000	0.094000   
289.500000	0.104000   
290.000000	0.099000   
290.500000	0.102000   
291.000000	0.087999   
291.500000	0.085000   
292.000000	0.087999   
292.500000	0.061000   
293.000000	0.063000   
293.500000	0.109000   
294.000000	0.097000   
294.500000	0.078000   
295.000000	0.126000   
295.500000	0.084000   
296.000000	0.100000   
296.500000	0.108000   
297.000000	0.104000   
297.500000	0.089000   
298.000000	0.147000   
298.500000	0.149000   
299.000000	0.083000   
299.500000	0.126000   
300.000000	0.134000   
300.500000	0.143000   
301.000000	0.165000   
301.500000	0.121000   
302.000000	0.109000   
302.500000	0.157000   
303.000000	0.126000   
303.500000	0.113000   
304.000000	0.161000   
304.500000	0.140000   
305.000000	0.099000   
305.500000	0.151000   
306.000000	0.187000   
306.500000	0.175000   
307.000000	0.155000   
307.500000	0.092000   
308.000000	0.137000   
308.500000	0.213000   
309.000000	0.123000   
309.500000	0.129000   
310.000000	0.152000   
310.500000	0.158000   
311.000000	0.185000   
311.500000	0.150000   
312.000000	0.133000   
312.500000	0.120000   
313.000000	0.172000   
313.500000	0.197000   
314.000000	0.144000   
314.500000	0.236000   
315.000000	0.127000   
315.500000	0.236000   
316.000000	0.134000   
316.500000	0.180000   
317.000000	0.192000   
317.500000	0.157000   
318.000000	0.171000   
318.500000	0.170000   
319.000000	0.238000   
319.500000	0.230000   
320.000000	0.235000   
320.500000	0.135000   
321.000000	0.176000   
321.500000	0.203000   
322.000000	0.172000   
322.500000	0.157000   
323.000000	0.187000   
323.500000	0.188000   
324.000000	0.242000   
324.500000	0.286000   
325.000000	0.196000   
325.500000	0.204000   
326.000000	0.153000   
326.500000	0.179000   
327.000000	0.209000   
327.500000	0.194000   
328.000000	0.212000   
328.500000	0.213000   
329.000000	0.214000   
329.500000	0.279000   
330.000000	0.211000   
330.500000	0.220000   
331.000000	0.227000   
331.500000	0.170000   
332.000000	0.267000   
332.500000	0.308000   
333.000000	0.316000   
333.500000	0.224000   
334.000000	0.205000   
334.500000	0.165000   
335.000000	0.227000   
335.500000	0.174000   
336.000000	0.122000   
336.500000	0.160000   
337.000000	0.182000   
337.500000	0.326000   
338.000000	0.225000   
338.500000	0.202000   
339.000000	0.176000   
339.500000	0.186000   
340.000000	0.227000   
340.500000	0.182000   
341.000000	0.218000   
341.500000	0.227000   
342.000000	0.136000   
342.500000	0.161000   
343.000000	0.304000   
343.500000	0.179000   
344.000000	0.230000   
344.500000	0.171000   
345.000000	0.305000   
345.500000	0.259000   
346.000000	0.153000   
346.500000	0.139000   
347.000000	0.258000   
347.500000	0.242000   
348.000000	0.398000   
348.500000	0.267000   
349.000000	0.233000   
349.500000	0.196000   
350.000000	0.170000   
350.500000	0.198000   
351.000000	0.215000   
351.500000	0.248000   
352.000000	0.253000   
352.500000	0.237000   
353.000000	0.331000   
353.500000	0.262000   
354.000000	0.192000   
354.500000	0.207000   
355.000000	0.250000   
355.500000	0.287000   
356.000000	0.236000   
356.500000	0.233000   
357.000000	0.252000   
357.500000	0.242000   
358.000000	0.189000   
358.500000	0.151000   
359.000000	0.203000   
359.500000	0.246000   
360.000000	0.234000   
360.500000	0.213000   
361.000000	0.173000   
361.500000	0.166000   
362.000000	0.183000   
362.500000	0.187000   
363.000000	0.242000   
363.500000	0.216000   
364.000000	0.181000   
364.500000	0.145000   
365.000000	0.185000   
365.500000	0.215000   
366.000000	0.159000   
366.500000	0.210000   
367.000000	0.189000   
367.500000	0.225000   
368.000000	0.209000   
368.500000	0.283000   
369.000000	0.162000   
369.500000	0.242000   
370.000000	0.257000   
370.500000	0.151000   
371.000000	0.252000   
371.500000	0.235000   
372.000000	0.154000   
372.500000	0.165000   
373.000000	0.203000   
373.500000	0.171000   
374.000000	0.197000   
374.500000	0.216000   
375.000000	0.197000   
375.500000	0.175000   
376.000000	0.232000   
376.500000	0.140000   
377.000000	0.181000   
377.500000	0.152000   
378.000000	0.203000   
378.500000	0.234000   
379.000000	0.245000   
379.500000	0.259000   
380.000000	0.192000   
380.500000	0.182000   
381.000000	0.299000   
381.500000	0.280000   
382.000000	0.223000   
382.500000	0.333000   
383.000000	0.272000   
383.500000	0.252000   
384.000000	0.275000   
384.500000	0.213000   
385.000000	0.196000   
385.500000	0.282000   
386.000000	0.214000   
386.500000	0.331000   
387.000000	0.251000   
387.500000	0.181000   
388.000000	0.236000   
388.500000	0.223000   
389.000000	0.268000   
389.500000	0.220000   
390.000000	0.341000   
390.500000	0.289000   
391.000000	0.255000   
391.500000	0.267000   
392.000000	0.233000   
392.500000	0.242000   
393.000000	0.289000   
393.500000	0.270000   
394.000000	0.265000   
394.500000	0.278000   
395.000000	0.262000   
395.500000	0.302000   
396.000000	0.352000   
396.500000	0.380000   
397.000000	0.332000   
397.500000	0.243000   
398.000000	0.289000   
398.500000	0.379000   
399.000000	0.370000   
399.500000	0.235000   
400.000000	0.214000   
400.500000	0.240000   
401.000000	0.298000   
401.500000	0.281000   
402.000000	0.309000   
402.500000	0.365000   
403.000000	0.368000   
403.500000	0.355000   
404.000000	0.338000   
404.500000	0.409000   
405.000000	0.420000   
405.500000	0.464000   
406.000000	0.430000   
406.500000	0.468000   
407.000000	0.433000   
407.500000	0.443000   
408.000000	0.436000   
408.500000	0.470000   
409.000000	0.405000   
409.500000	0.431000   
410.000000	0.513000   
410.500000	0.596000   
411.000000	0.555000   
411.500000	0.450000   
412.000000	0.465000   
412.500000	0.595000   
413.000000	0.594000   
413.500000	0.544000   
414.000000	0.510000   
414.500000	0.542000   
415.000000	0.600000   
415.500000	0.632000   
416.000000	0.595000   
416.500000	0.655000   
417.000000	0.619000   
417.500000	0.670000   
418.000000	0.611000   
418.500000	0.712000   
419.000000	0.728000   
419.500000	0.660000   
420.000000	0.654000   
420.500000	0.763000   
421.000000	0.774000   
421.500000	0.663000   
422.000000	0.808000   
422.500000	0.895000   
423.000000	0.853000   
423.500000	0.735000   
424.000000	0.807000   
424.500000	0.824000   
425.000000	0.788000   
425.500000	0.870000   
426.000000	1.063000   
426.500000	1.073000   
427.000000	1.329000   
427.500000	1.662000   
428.000000	2.158000   
428.500000	2.763000   
429.000000	3.618000   
429.500000	4.771000   
430.000000	5.954000   
430.500000	7.637000   
431.000000	10.401000  
431.500000	12.978000  
432.000000	15.820000  
432.500000	19.796000  
433.000000	24.070000  
433.500000	28.514000  
434.000000	34.813000  
434.500000	41.285000  
435.000000	49.743000  
435.500000	56.393000  
436.000000	66.489000  
436.500000	74.248000  
437.000000	85.994000  
437.500000	95.598000  
438.000000	109.881000 
438.500000	120.316000 
439.000000	133.120000 
439.500000	145.524000 
440.000000	157.237000 
440.500000	170.015000 
441.000000	185.742000 
441.500000	195.035000 
442.000000	203.948000 
442.500000	212.891000 
443.000000	221.701000 
443.500000	229.631000 
444.000000	239.493000 
444.500000	241.898000 
445.000000	245.184000 
445.500000	246.424000 
446.000000	249.041000 
446.500000	244.807000 
447.000000	239.734000 
447.500000	235.317000 
448.000000	228.216000 
448.500000	219.445000 
449.000000	214.497000 
449.500000	203.695000 
450.000000	195.518000 
450.500000	181.095000 
451.000000	174.451000 
451.500000	162.257000 
452.000000	150.073000 
452.500000	136.528000 
453.000000	125.137000 
453.500000	110.054000 
454.000000	101.104000 
454.500000	89.132000  
455.000000	79.982000  
455.500000	69.858000  
456.000000	60.940000  
456.500000	50.932000  
457.000000	45.148000  
457.500000	39.666000  
458.000000	32.436000  
458.500000	28.164000  
459.000000	22.949000  
459.500000	18.981000  
460.000000	15.852000  
460.500000	12.747000  
461.000000	10.622000  
461.500000	8.999000   
462.000000	7.031000   
462.500000	5.691000   
463.000000	4.556000   
463.500000	4.056000   
464.000000	3.070000   
464.500000	2.758000   
465.000000	2.230000   
465.500000	1.966000   
466.000000	1.852000   
466.500000	1.904000   
467.000000	1.763000   
467.500000	1.803000   
468.000000	1.550000   
468.500000	1.638000   
469.000000	1.647000   
469.500000	1.665000   
470.000000	1.655000   
470.500000	1.704000   
471.000000	1.827000   
471.500000	1.719000   
472.000000	1.743000   
472.500000	2.018000   
473.000000	2.042000   
473.500000	1.918000   
474.000000	2.313000   
474.500000	2.207000   
475.000000	2.547000   
475.500000	2.432000   
476.000000	2.505000   
476.500000	2.673000   
477.000000	2.610000   
477.500000	2.905000   
478.000000	2.902000   
478.500000	2.894000   
479.000000	3.004000   
479.500000	3.465000   
480.000000	3.664000   
480.500000	3.382000   
481.000000	3.678000   
481.500000	3.571000   
482.000000	3.586000   
482.500000	3.850000   
483.000000	3.863000   
483.500000	3.668000   
484.000000	3.958000   
484.500000	3.758000   
485.000000	3.890000   
485.500000	4.008000   
486.000000	3.769000   
486.500000	3.906000   
487.000000	3.645000   
487.500000	3.451000   
488.000000	3.397000   
488.500000	3.462000   
489.000000	3.234000   
489.500000	3.235000   
490.000000	2.893000   
490.500000	2.876000   
491.000000	2.652000   
491.500000	2.381000   
492.000000	2.472000   
492.500000	2.335000   
493.000000	2.143000   
493.500000	1.993000   
494.000000	1.840000   
494.500000	1.729000   
495.000000	1.860000   
495.500000	1.676000   
496.000000	1.530000   
496.500000	1.313000   
497.000000	1.263000   
497.500000	1.264000   
498.000000	1.137000   
498.500000	1.084000   
499.000000	0.909000   
499.500000	0.792000   
500.000000	0.783000   
500.500000	0.755000   
501.000000	0.703000   
501.500000	0.552000   
502.000000	0.581000   
502.500000	0.722000   
503.000000	0.787000   
503.500000	0.604000   
504.000000	0.659000   
504.500000	0.661000   
505.000000	0.725000   
505.500000	0.732000   
506.000000	0.732000   
506.500000	0.829000   
507.000000	0.718000   
507.500000	0.886000   
508.000000	0.817999   
508.500000	1.071000   
509.000000	1.061000   
509.500000	1.205000   
510.000000	1.394000   
510.500000	1.323000   
511.000000	1.552000   
511.500000	1.605000   
512.000000	1.646000   
512.500000	2.105000   
513.000000	2.102000   
513.500000	2.369000   
514.000000	2.393000   
514.500000	2.635000   
515.000000	2.930000   
515.500000	2.978000   
516.000000	3.156000   
516.500000	3.477000   
517.000000	3.913000   
517.500000	3.881000   
518.000000	4.213000   
518.500000	4.318000   
519.000000	4.543000   
519.500000	4.384000   
520.000000	4.936000   
520.500000	5.087000   
521.000000	4.977000   
521.500000	5.633000   
522.000000	5.542000   
522.500000	5.357000   
523.000000	5.859000   
523.500000	6.262000   
524.000000	5.959000   
524.500000	6.165000   
525.000000	5.890000   
525.500000	5.883000   
526.000000	6.207000   
526.500000	5.828000   
527.000000	5.877000   
527.500000	6.009000   
528.000000	5.799000   
528.500000	5.447000   
529.000000	5.825000   
529.500000	5.291000   
530.000000	5.238000   
530.500000	4.923000   
531.000000	4.887000   
531.500000	4.866000   
532.000000	4.570000   
532.500000	4.175000   
533.000000	4.105000   
533.500000	3.740000   
534.000000	3.859000   
534.500000	3.596000   
535.000000	3.325000   
535.500000	3.199000   
536.000000	2.969000   
536.500000	2.660000   
537.000000	2.638000   
537.500000	2.260000   
538.000000	1.809000   
538.500000	2.028000   
539.000000	1.814000   
539.500000	1.574000   
540.000000	1.435000   
540.500000	1.329000   
541.000000	1.346000   
541.500000	1.163000   
542.000000	0.965000   
542.500000	0.876000   
543.000000	0.809000   
543.500000	0.858000   
544.000000	0.760000   
544.500000	0.551000   
545.000000	0.561000   
545.500000	0.517000   
546.000000	0.482000   
546.500000	0.419000   
547.000000	0.407000   
547.500000	0.436000   
548.000000	0.307000   
548.500000	0.313000   

