PE FL                   SPECTRUM    ASCII       PEDS        1.60        
  -1
0174F5~1.SP
19/01/24
10:23:20.00
19/01/24
10:23:20.00


548.500000
1









LS45
305.00
10.00
10.00
SCAN
1
16
100
100
0
600
0
1
0
1
7
ON
435 365 
0 0 0
#HDR
-1
-1
#GR
NM
INT 
0.00002384185791015625
0.0
230.000000
0.500000
638
8
465.574000
0.245000
#DATA
230.000000	0.252000   
230.500000	0.271000   
231.000000	0.302000   
231.500000	0.245000   
232.000000	0.298000   
232.500000	0.338000   
233.000000	0.293000   
233.500000	0.268000   
234.000000	0.360000   
234.500000	0.317000   
235.000000	0.307000   
235.500000	0.274000   
236.000000	0.321000   
236.500000	0.309000   
237.000000	0.367000   
237.500000	0.261000   
238.000000	0.340000   
238.500000	0.322000   
239.000000	0.335000   
239.500000	0.387000   
240.000000	0.316000   
240.500000	0.383000   
241.000000	0.517000   
241.500000	0.309000   
242.000000	0.382000   
242.500000	0.322000   
243.000000	0.415000   
243.500000	0.448000   
244.000000	0.399000   
244.500000	0.477000   
245.000000	0.449000   
245.500000	0.508000   
246.000000	0.541000   
246.500000	0.419000   
247.000000	0.529000   
247.500000	0.382000   
248.000000	0.524000   
248.500000	0.576000   
249.000000	0.397000   
249.500000	0.531000   
250.000000	0.373000   
250.500000	0.464000   
251.000000	0.360000   
251.500000	0.331000   
252.000000	0.439000   
252.500000	0.466000   
253.000000	0.566999   
253.500000	0.522000   
254.000000	0.560000   
254.500000	0.531000   
255.000000	0.538000   
255.500000	0.410000   
256.000000	0.405000   
256.500000	0.603000   
257.000000	0.540000   
257.500000	0.692999   
258.000000	0.510000   
258.500000	0.646000   
259.000000	0.526000   
259.500000	0.449000   
260.000000	0.469000   
260.500000	0.572000   
261.000000	0.626000   
261.500000	0.640000   
262.000000	0.676000   
262.500000	0.616000   
263.000000	0.658000   
263.500000	0.736000   
264.000000	0.779000   
264.500000	0.703000   
265.000000	0.914000   
265.500000	0.754000   
266.000000	0.808000   
266.500000	0.756000   
267.000000	0.736000   
267.500000	0.709000   
268.000000	0.897000   
268.500000	0.794000   
269.000000	0.990000   
269.500000	1.068000   
270.000000	0.920000   
270.500000	0.906000   
271.000000	1.108000   
271.500000	1.108000   
272.000000	1.089000   
272.500000	1.150000   
273.000000	1.239000   
273.500000	0.976000   
274.000000	1.009000   
274.500000	1.246000   
275.000000	1.296000   
275.500000	1.255000   
276.000000	1.423000   
276.500000	1.371000   
277.000000	1.429000   
277.500000	1.450000   
278.000000	1.461000   
278.500000	1.757000   
279.000000	1.476000   
279.500000	1.663000   
280.000000	1.882000   
280.500000	2.113000   
281.000000	2.315000   
281.500000	2.637000   
282.000000	2.731000   
282.500000	3.231000   
283.000000	3.916000   
283.500000	4.933000   
284.000000	6.260000   
284.500000	7.928000   
285.000000	10.217000  
285.500000	13.942000  
286.000000	17.249000  
286.500000	19.845000  
287.000000	25.305000  
287.500000	31.840000  
288.000000	38.652000  
288.500000	46.784000  
289.000000	55.804000  
289.500000	62.145000  
290.000000	74.505000  
290.500000	86.624000  
291.000000	100.831000 
291.500000	113.959000 
292.000000	132.401000 
292.500000	147.455000 
293.000000	164.547000 
293.500000	182.754000 
294.000000	206.193000 
294.500000	221.909000 
295.000000	244.640000 
295.500000	264.052000 
296.000000	284.475000 
296.500000	307.696000 
297.000000	329.525000 
297.500000	349.366000 
298.000000	366.366000 
298.500000	383.035000 
299.000000	398.265000 
299.500000	421.287000 
300.000000	435.495000 
300.500000	443.717000 
301.000000	453.591000 
301.500000	458.269000 
302.000000	465.574000 
302.500000	463.821000 
303.000000	464.682000 
303.500000	464.790000 
304.000000	457.540000 
304.500000	453.038000 
305.000000	439.607000 
305.500000	427.246000 
306.000000	417.806000 
306.500000	401.141000 
307.000000	378.195000 
307.500000	357.564000 
308.000000	339.391000 
308.500000	315.673000 
309.000000	298.794000 
309.500000	271.159000 
310.000000	254.866000 
310.500000	225.239000 
311.000000	206.135000 
311.500000	185.735000 
312.000000	171.068000 
312.500000	151.186000 
313.000000	135.758000 
313.500000	114.714000 
314.000000	101.785000 
314.500000	87.551000  
315.000000	75.959000  
315.500000	62.290000  
316.000000	53.202000  
316.500000	45.793000  
317.000000	39.661000  
317.500000	33.020000  
318.000000	28.477000  
318.500000	24.875000  
319.000000	22.412000  
319.500000	21.627000  
320.000000	20.179000  
320.500000	18.946000  
321.000000	19.545000  
321.500000	19.682000  
322.000000	21.396000  
322.500000	23.369000  
323.000000	25.979000  
323.500000	27.962000  
324.000000	32.019000  
324.500000	36.939000  
325.000000	38.411000  
325.500000	41.803000  
326.000000	46.316000  
326.500000	50.034000  
327.000000	54.429000  
327.500000	59.349000  
328.000000	63.831000  
328.500000	68.586000  
329.000000	74.159000  
329.500000	79.021000  
330.000000	83.775000  
330.500000	89.102000  
331.000000	91.169000  
331.500000	95.977999  
332.000000	99.637000  
332.500000	103.250000 
333.000000	105.821000 
333.500000	107.991000 
334.000000	111.019000 
334.500000	112.718000 
335.000000	114.245000 
335.500000	115.389000 
336.000000	115.360000 
336.500000	113.338000 
337.000000	114.572000 
337.500000	112.517000 
338.000000	111.911000 
338.500000	107.574000 
339.000000	106.328000 
339.500000	106.192000 
340.000000	101.236000 
340.500000	95.869000  
341.000000	92.516000  
341.500000	89.697000  
342.000000	83.420000  
342.500000	79.383000  
343.000000	75.901000  
343.500000	71.901000  
344.000000	66.565000  
344.500000	62.550000  
345.000000	58.857000  
345.500000	53.428000  
346.000000	49.285000  
346.500000	45.123000  
347.000000	39.493000  
347.500000	36.584000  
348.000000	31.340000  
348.500000	29.396000  
349.000000	27.666000  
349.500000	24.190000  
350.000000	20.758000  
350.500000	18.443000  
351.000000	15.977000  
351.500000	13.819000  
352.000000	12.282000  
352.500000	10.404000  
353.000000	9.313000   
353.500000	8.520000   
354.000000	7.130000   
354.500000	6.503000   
355.000000	5.978000   
355.500000	4.508000   
356.000000	4.138000   
356.500000	3.600000   
357.000000	3.743000   
357.500000	3.721000   
358.000000	3.200000   
358.500000	3.088000   
359.000000	2.726000   
359.500000	2.452000   
360.000000	2.626000   
360.500000	2.465000   
361.000000	2.283000   
361.500000	2.407000   
362.000000	2.343000   
362.500000	2.445000   
363.000000	2.278000   
363.500000	2.312000   
364.000000	2.642000   
364.500000	2.397000   
365.000000	1.981000   
365.500000	2.334000   
366.000000	2.172000   
366.500000	2.015000   
367.000000	2.102000   
367.500000	1.993000   
368.000000	1.904000   
368.500000	2.119000   
369.000000	1.984000   
369.500000	1.764000   
370.000000	2.027000   
370.500000	2.055000   
371.000000	1.970000   
371.500000	1.809000   
372.000000	1.832000   
372.500000	1.948000   
373.000000	1.718000   
373.500000	1.691000   
374.000000	1.788000   
374.500000	1.959000   
375.000000	1.935000   
375.500000	1.667000   
376.000000	1.699000   
376.500000	1.748000   
377.000000	1.647000   
377.500000	1.717000   
378.000000	1.663000   
378.500000	1.709000   
379.000000	1.769000   
379.500000	1.636000   
380.000000	1.544000   
380.500000	1.714000   
381.000000	1.559000   
381.500000	1.658000   
382.000000	1.884000   
382.500000	1.953000   
383.000000	1.771000   
383.500000	1.557000   
384.000000	1.682000   
384.500000	1.909000   
385.000000	1.683000   
385.500000	1.540000   
386.000000	1.584000   
386.500000	1.466000   
387.000000	1.366000   
387.500000	1.527000   
388.000000	1.612000   
388.500000	1.482000   
389.000000	1.629000   
389.500000	1.587000   
390.000000	1.700000   
390.500000	1.655000   
391.000000	1.747000   
391.500000	1.371000   
392.000000	1.479000   
392.500000	1.760000   
393.000000	1.448000   
393.500000	1.347000   
394.000000	1.436000   
394.500000	1.437000   
395.000000	1.521000   
395.500000	1.456000   
396.000000	1.616000   
396.500000	1.485000   
397.000000	1.377000   
397.500000	1.362000   
398.000000	1.369000   
398.500000	1.436000   
399.000000	1.580000   
399.500000	1.370000   
400.000000	1.597000   
400.500000	1.346000   
401.000000	1.522000   
401.500000	1.466000   
402.000000	1.588000   
402.500000	1.874000   
403.000000	1.516000   
403.500000	1.495000   
404.000000	1.769000   
404.500000	1.544000   
405.000000	1.551000   
405.500000	1.619000   
406.000000	1.559000   
406.500000	1.455000   
407.000000	1.492000   
407.500000	1.285000   
408.000000	1.360000   
408.500000	1.465000   
409.000000	1.647000   
409.500000	1.608000   
410.000000	1.561000   
410.500000	1.603000   
411.000000	1.418000   
411.500000	1.581000   
412.000000	1.534000   
412.500000	1.477000   
413.000000	1.470000   
413.500000	1.396000   
414.000000	1.376000   
414.500000	1.591000   
415.000000	1.596000   
415.500000	1.548000   
416.000000	1.358000   
416.500000	1.387000   
417.000000	1.473000   
417.500000	1.308000   
418.000000	1.517000   
418.500000	1.354000   
419.000000	1.522000   
419.500000	1.535000   
420.000000	1.628000   
420.500000	1.519000   
421.000000	1.414000   
421.500000	1.637000   
422.000000	1.657000   
422.500000	1.629000   
423.000000	1.529000   
423.500000	1.448000   
424.000000	1.437000   
424.500000	1.216000   
425.000000	1.210000   
425.500000	1.257000   
426.000000	1.278000   
426.500000	1.419000   
427.000000	1.308000   
427.500000	1.463000   
428.000000	1.532000   
428.500000	1.427000   
429.000000	1.338000   
429.500000	1.230000   
430.000000	1.433000   
430.500000	1.401000   
431.000000	1.263000   
431.500000	1.185000   
432.000000	1.307000   
432.500000	1.348000   
433.000000	1.448000   
433.500000	1.326000   
434.000000	1.507000   
434.500000	1.542000   
435.000000	1.490000   
435.500000	1.621000   
436.000000	1.300000   
436.500000	1.399000   
437.000000	1.298000   
437.500000	1.314000   
438.000000	1.522000   
438.500000	1.293000   
439.000000	1.266000   
439.500000	1.196000   
440.000000	1.377000   
440.500000	1.140000   
441.000000	1.281000   
441.500000	1.302000   
442.000000	1.262000   
442.500000	1.465000   
443.000000	1.389000   
443.500000	1.164000   
444.000000	1.212000   
444.500000	1.223000   
445.000000	1.368000   
445.500000	1.346000   
446.000000	1.128000   
446.500000	1.200000   
447.000000	1.261000   
447.500000	1.215000   
448.000000	1.160000   
448.500000	1.233000   
449.000000	1.486000   
449.500000	1.573000   
450.000000	1.172000   
450.500000	1.284000   
451.000000	1.336000   
451.500000	1.265000   
452.000000	1.401000   
452.500000	1.274000   
453.000000	1.307000   
453.500000	1.376000   
454.000000	1.211000   
454.500000	1.675000   
455.000000	1.342000   
455.500000	1.328000   
456.000000	1.192000   
456.500000	1.620000   
457.000000	1.505000   
457.500000	1.499000   
458.000000	1.526000   
458.500000	1.601000   
459.000000	1.605000   
459.500000	1.380000   
460.000000	1.570000   
460.500000	1.707000   
461.000000	1.434000   
461.500000	1.029000   
462.000000	1.285000   
462.500000	1.617000   
463.000000	1.510000   
463.500000	1.137000   
464.000000	1.243000   
464.500000	1.295000   
465.000000	1.452000   
465.500000	1.512000   
466.000000	1.286000   
466.500000	1.443000   
467.000000	1.356000   
467.500000	1.444000   
468.000000	1.132000   
468.500000	1.247000   
469.000000	1.221000   
469.500000	1.312000   
470.000000	1.299000   
470.500000	1.299000   
471.000000	1.035000   
471.500000	1.295000   
472.000000	1.218000   
472.500000	1.264000   
473.000000	1.293000   
473.500000	1.388000   
474.000000	1.074000   
474.500000	1.379000   
475.000000	1.097000   
475.500000	1.057000   
476.000000	1.062000   
476.500000	1.136000   
477.000000	1.170000   
477.500000	1.149000   
478.000000	1.299000   
478.500000	1.179000   
479.000000	1.142000   
479.500000	1.156000   
480.000000	1.273000   
480.500000	1.184000   
481.000000	1.167000   
481.500000	1.081000   
482.000000	1.064000   
482.500000	1.271000   
483.000000	1.332000   
483.500000	1.362000   
484.000000	1.293000   
484.500000	1.262000   
485.000000	1.136000   
485.500000	1.192000   
486.000000	1.295000   
486.500000	1.260000   
487.000000	1.299000   
487.500000	1.436000   
488.000000	1.178000   
488.500000	1.037000   
489.000000	1.075000   
489.500000	1.141000   
490.000000	1.382000   
490.500000	1.337000   
491.000000	1.390000   
491.500000	1.156000   
492.000000	1.237000   
492.500000	1.266000   
493.000000	1.474000   
493.500000	1.115000   
494.000000	1.337000   
494.500000	1.468000   
495.000000	1.489000   
495.500000	1.307000   
496.000000	1.197000   
496.500000	1.397000   
497.000000	1.293000   
497.500000	1.367000   
498.000000	1.366000   
498.500000	1.351000   
499.000000	1.224000   
499.500000	1.315000   
500.000000	1.400000   
500.500000	1.227000   
501.000000	1.279000   
501.500000	1.065000   
502.000000	1.126000   
502.500000	1.144000   
503.000000	1.112000   
503.500000	1.042000   
504.000000	1.027000   
504.500000	1.090000   
505.000000	1.101000   
505.500000	0.949000   
506.000000	0.868000   
506.500000	0.926000   
507.000000	1.133000   
507.500000	1.083000   
508.000000	1.049000   
508.500000	1.214000   
509.000000	1.077000   
509.500000	0.974000   
510.000000	0.816999   
510.500000	1.054000   
511.000000	1.310000   
511.500000	1.230000   
512.000000	1.192000   
512.500000	1.240000   
513.000000	1.122000   
513.500000	1.305000   
514.000000	1.239000   
514.500000	1.117000   
515.000000	1.188000   
515.500000	1.081000   
516.000000	1.252000   
516.500000	1.102000   
517.000000	1.123000   
517.500000	1.181000   
518.000000	1.269000   
518.500000	1.177000   
519.000000	1.058000   
519.500000	1.090000   
520.000000	1.114000   
520.500000	1.362000   
521.000000	1.394000   
521.500000	1.064000   
522.000000	1.320000   
522.500000	1.213000   
523.000000	1.295000   
523.500000	1.217000   
524.000000	1.116000   
524.500000	1.223000   
525.000000	0.889000   
525.500000	1.185000   
526.000000	1.300000   
526.500000	1.254000   
527.000000	1.051000   
527.500000	1.284000   
528.000000	1.201000   
528.500000	1.211000   
529.000000	1.018000   
529.500000	1.207000   
530.000000	1.174000   
530.500000	1.226000   
531.000000	1.180000   
531.500000	1.262000   
532.000000	1.161000   
532.500000	1.386000   
533.000000	1.315000   
533.500000	1.421000   
534.000000	1.277000   
534.500000	1.132000   
535.000000	1.292000   
535.500000	1.415000   
536.000000	1.221000   
536.500000	1.251000   
537.000000	1.292000   
537.500000	1.397000   
538.000000	1.391000   
538.500000	1.296000   
539.000000	1.268000   
539.500000	1.264000   
540.000000	1.389000   
540.500000	1.390000   
541.000000	1.216000   
541.500000	1.303000   
542.000000	1.451000   
542.500000	1.718000   
543.000000	1.314000   
543.500000	1.284000   
544.000000	1.386000   
544.500000	1.326000   
545.000000	1.316000   
545.500000	1.278000   
546.000000	1.205000   
546.500000	1.484000   
547.000000	1.690000   
547.500000	1.387000   
548.000000	1.358000   
548.500000	1.285000   

