PE FL                   SPECTRUM    ASCII       PEDS        1.60        
  -1
0174F1~1.SP
19/01/24
10:22:36.00
19/01/24
10:22:36.00


548.500000
1









LS45
300.00
10.00
10.00
SCAN
1
16
100
100
0
600
0
1
0
1
7
ON
435 365 
0 0 0
#HDR
-1
-1
#GR
NM
INT 
0.00002384185791015625
0.0
230.000000
0.500000
638
8
461.575000
0.238000
#DATA
230.000000	0.612000   
230.500000	0.430000   
231.000000	0.287000   
231.500000	0.323000   
232.000000	0.347000   
232.500000	0.407000   
233.000000	0.286000   
233.500000	0.325000   
234.000000	0.381000   
234.500000	0.366000   
235.000000	0.359000   
235.500000	0.501000   
236.000000	0.282000   
236.500000	0.238000   
237.000000	0.358000   
237.500000	0.405000   
238.000000	0.412000   
238.500000	0.307000   
239.000000	0.356000   
239.500000	0.364000   
240.000000	0.367000   
240.500000	0.398000   
241.000000	0.362000   
241.500000	0.323000   
242.000000	0.442000   
242.500000	0.474000   
243.000000	0.552000   
243.500000	0.506000   
244.000000	0.330000   
244.500000	0.390000   
245.000000	0.400000   
245.500000	0.348000   
246.000000	0.368000   
246.500000	0.414000   
247.000000	0.344000   
247.500000	0.430000   
248.000000	0.464000   
248.500000	0.366000   
249.000000	0.535000   
249.500000	0.521000   
250.000000	0.453000   
250.500000	0.480000   
251.000000	0.502000   
251.500000	0.561000   
252.000000	0.537000   
252.500000	0.560000   
253.000000	0.653000   
253.500000	0.567999   
254.000000	0.540000   
254.500000	0.570000   
255.000000	0.653000   
255.500000	0.478000   
256.000000	0.662000   
256.500000	0.779000   
257.000000	0.596000   
257.500000	0.587000   
258.000000	0.798000   
258.500000	0.721000   
259.000000	0.609000   
259.500000	0.708000   
260.000000	0.779000   
260.500000	0.766000   
261.000000	0.827000   
261.500000	0.803000   
262.000000	0.906000   
262.500000	0.831000   
263.000000	0.812000   
263.500000	0.824000   
264.000000	0.814999   
264.500000	1.016000   
265.000000	0.836000   
265.500000	0.905000   
266.000000	0.884000   
266.500000	0.933000   
267.000000	1.097000   
267.500000	1.164000   
268.000000	1.007000   
268.500000	0.980000   
269.000000	1.173000   
269.500000	1.097000   
270.000000	1.131000   
270.500000	1.298000   
271.000000	1.350000   
271.500000	1.448000   
272.000000	1.261000   
272.500000	1.315000   
273.000000	1.319000   
273.500000	1.380000   
274.000000	1.673000   
274.500000	1.568000   
275.000000	1.639000   
275.500000	1.964000   
276.000000	1.911000   
276.500000	2.318000   
277.000000	2.732000   
277.500000	3.076000   
278.000000	3.687000   
278.500000	4.177000   
279.000000	5.324000   
279.500000	5.904000   
280.000000	7.560000   
280.500000	9.597000   
281.000000	11.875000  
281.500000	15.485000  
282.000000	19.455000  
282.500000	24.229000  
283.000000	30.759000  
283.500000	36.892000  
284.000000	44.148000  
284.500000	55.258000  
285.000000	63.412000  
285.500000	76.733999  
286.000000	85.605000  
286.500000	99.418000  
287.000000	116.436000 
287.500000	131.963000 
288.000000	150.644000 
288.500000	169.142000 
289.000000	187.491000 
289.500000	206.953000 
290.000000	233.053000 
290.500000	246.071000 
291.000000	273.063000 
291.500000	290.973000 
292.000000	315.688000 
292.500000	332.864000 
293.000000	353.743000 
293.500000	369.826000 
294.000000	386.406000 
294.500000	400.900000 
295.000000	419.800000 
295.500000	431.331000 
296.000000	439.929000 
296.500000	450.564000 
297.000000	456.657000 
297.500000	461.575000 
298.000000	458.520000 
298.500000	461.045000 
299.000000	457.914000 
299.500000	448.120000 
300.000000	437.558000 
300.500000	422.296000 
301.000000	415.258000 
301.500000	402.101000 
302.000000	385.113000 
302.500000	369.099000 
303.000000	343.934000 
303.500000	331.421000 
304.000000	300.935000 
304.500000	282.988000 
305.000000	260.539000 
305.500000	240.832000 
306.000000	216.373000 
306.500000	193.151000 
307.000000	173.779000 
307.500000	153.703000 
308.000000	137.183000 
308.500000	117.494000 
309.000000	105.374000 
309.500000	87.608999  
310.000000	77.117999  
310.500000	64.727000  
311.000000	55.323000  
311.500000	47.584000  
312.000000	41.065000  
312.500000	34.534000  
313.000000	30.764000  
313.500000	27.780000  
314.000000	24.573000  
314.500000	20.798000  
315.000000	21.430000  
315.500000	21.180000  
316.000000	20.893000  
316.500000	22.056000  
317.000000	23.636000  
317.500000	25.487000  
318.000000	27.847000  
318.500000	29.869000  
319.000000	32.747000  
319.500000	37.010000  
320.000000	41.604000  
320.500000	45.886000  
321.000000	50.255000  
321.500000	54.461000  
322.000000	58.450000  
322.500000	62.191000  
323.000000	69.757000  
323.500000	74.864000  
324.000000	81.879000  
324.500000	85.044000  
325.000000	91.967000  
325.500000	95.556000  
326.000000	102.022000 
326.500000	108.797000 
327.000000	111.061000 
327.500000	116.012000 
328.000000	119.491000 
328.500000	123.060000 
329.000000	123.837000 
329.500000	123.550000 
330.000000	125.010000 
330.500000	125.836000 
331.000000	124.543000 
331.500000	124.736000 
332.000000	125.017000 
332.500000	124.242000 
333.000000	121.236000 
333.500000	117.265000 
334.000000	116.345000 
334.500000	109.666000 
335.000000	107.360000 
335.500000	100.389000 
336.000000	97.544000  
336.500000	90.055000  
337.000000	85.165000  
337.500000	78.406000  
338.000000	75.776000  
338.500000	67.950000  
339.000000	64.607000  
339.500000	59.444000  
340.000000	54.309000  
340.500000	49.416000  
341.000000	44.388000  
341.500000	39.961000  
342.000000	35.452000  
342.500000	31.430000  
343.000000	29.134000  
343.500000	25.870000  
344.000000	23.492000  
344.500000	20.483000  
345.000000	17.878000  
345.500000	15.879000  
346.000000	13.689000  
346.500000	11.823000  
347.000000	9.997999   
347.500000	9.143000   
348.000000	7.289000   
348.500000	6.813000   
349.000000	6.494000   
349.500000	5.678000   
350.000000	4.661000   
350.500000	4.590000   
351.000000	4.050000   
351.500000	3.737000   
352.000000	3.313000   
352.500000	3.147000   
353.000000	3.314000   
353.500000	3.180000   
354.000000	3.027000   
354.500000	2.759000   
355.000000	2.726000   
355.500000	2.801000   
356.000000	3.123000   
356.500000	2.910000   
357.000000	2.556000   
357.500000	2.356000   
358.000000	2.773000   
358.500000	2.689000   
359.000000	2.704000   
359.500000	2.324000   
360.000000	2.705000   
360.500000	2.272000   
361.000000	2.226000   
361.500000	2.259000   
362.000000	2.389000   
362.500000	2.551000   
363.000000	2.411000   
363.500000	2.158000   
364.000000	2.158000   
364.500000	2.129000   
365.000000	2.189000   
365.500000	2.320000   
366.000000	2.011000   
366.500000	2.101000   
367.000000	2.172000   
367.500000	2.284000   
368.000000	2.136000   
368.500000	1.843000   
369.000000	2.224000   
369.500000	1.972000   
370.000000	1.917000   
370.500000	1.970000   
371.000000	2.089000   
371.500000	1.949000   
372.000000	2.094000   
372.500000	2.127000   
373.000000	1.958000   
373.500000	1.943000   
374.000000	2.037000   
374.500000	2.166000   
375.000000	2.206000   
375.500000	2.138000   
376.000000	2.057000   
376.500000	2.014000   
377.000000	1.872000   
377.500000	1.865000   
378.000000	1.755000   
378.500000	1.908000   
379.000000	2.183000   
379.500000	2.012000   
380.000000	1.914000   
380.500000	1.561000   
381.000000	1.738000   
381.500000	1.739000   
382.000000	1.923000   
382.500000	2.023000   
383.000000	1.360000   
383.500000	1.698000   
384.000000	1.698000   
384.500000	1.715000   
385.000000	1.847000   
385.500000	1.733000   
386.000000	1.752000   
386.500000	1.773000   
387.000000	1.609000   
387.500000	1.531000   
388.000000	1.705000   
388.500000	2.153000   
389.000000	1.944000   
389.500000	1.546000   
390.000000	1.518000   
390.500000	1.608000   
391.000000	1.761000   
391.500000	1.546000   
392.000000	1.453000   
392.500000	1.597000   
393.000000	1.591000   
393.500000	1.718000   
394.000000	1.539000   
394.500000	1.493000   
395.000000	1.663000   
395.500000	1.478000   
396.000000	1.791000   
396.500000	1.662000   
397.000000	1.667000   
397.500000	1.473000   
398.000000	1.659000   
398.500000	1.531000   
399.000000	1.299000   
399.500000	1.578000   
400.000000	1.645000   
400.500000	1.939000   
401.000000	1.624000   
401.500000	1.457000   
402.000000	1.455000   
402.500000	1.620000   
403.000000	1.579000   
403.500000	1.544000   
404.000000	1.538000   
404.500000	1.532000   
405.000000	1.628000   
405.500000	1.702000   
406.000000	1.371000   
406.500000	1.467000   
407.000000	1.649000   
407.500000	1.631000   
408.000000	1.553000   
408.500000	1.581000   
409.000000	1.263000   
409.500000	1.401000   
410.000000	1.433000   
410.500000	1.495000   
411.000000	1.733000   
411.500000	1.644000   
412.000000	1.631000   
412.500000	1.694000   
413.000000	1.412000   
413.500000	1.537000   
414.000000	1.408000   
414.500000	1.582000   
415.000000	1.604000   
415.500000	1.136000   
416.000000	1.278000   
416.500000	1.587000   
417.000000	1.744000   
417.500000	1.609000   
418.000000	1.753000   
418.500000	1.686000   
419.000000	1.443000   
419.500000	1.802000   
420.000000	1.852000   
420.500000	1.723000   
421.000000	1.383000   
421.500000	1.619000   
422.000000	1.368000   
422.500000	1.638000   
423.000000	1.699000   
423.500000	1.694000   
424.000000	1.497000   
424.500000	1.588000   
425.000000	1.716000   
425.500000	1.511000   
426.000000	1.476000   
426.500000	1.824000   
427.000000	1.328000   
427.500000	1.540000   
428.000000	1.598000   
428.500000	1.503000   
429.000000	1.406000   
429.500000	1.455000   
430.000000	1.389000   
430.500000	1.619000   
431.000000	1.419000   
431.500000	1.285000   
432.000000	1.543000   
432.500000	1.450000   
433.000000	1.466000   
433.500000	1.603000   
434.000000	1.454000   
434.500000	1.423000   
435.000000	1.471000   
435.500000	1.559000   
436.000000	1.191000   
436.500000	1.345000   
437.000000	1.657000   
437.500000	1.442000   
438.000000	1.530000   
438.500000	1.444000   
439.000000	1.451000   
439.500000	1.423000   
440.000000	1.539000   
440.500000	1.429000   
441.000000	1.495000   
441.500000	1.599000   
442.000000	1.550000   
442.500000	1.440000   
443.000000	1.484000   
443.500000	1.791000   
444.000000	1.531000   
444.500000	1.513000   
445.000000	1.258000   
445.500000	1.530000   
446.000000	1.266000   
446.500000	1.391000   
447.000000	1.553000   
447.500000	1.484000   
448.000000	1.646000   
448.500000	1.472000   
449.000000	1.437000   
449.500000	1.635000   
450.000000	1.532000   
450.500000	1.377000   
451.000000	1.487000   
451.500000	1.541000   
452.000000	1.451000   
452.500000	1.613000   
453.000000	1.745000   
453.500000	1.809000   
454.000000	1.651000   
454.500000	1.666000   
455.000000	1.496000   
455.500000	1.655000   
456.000000	1.633000   
456.500000	1.803000   
457.000000	1.688000   
457.500000	1.884000   
458.000000	1.574000   
458.500000	1.758000   
459.000000	1.388000   
459.500000	1.641000   
460.000000	1.694000   
460.500000	1.507000   
461.000000	1.632000   
461.500000	1.440000   
462.000000	1.738000   
462.500000	1.654000   
463.000000	1.698000   
463.500000	1.496000   
464.000000	1.239000   
464.500000	1.292000   
465.000000	1.470000   
465.500000	1.085000   
466.000000	1.312000   
466.500000	1.288000   
467.000000	1.358000   
467.500000	1.331000   
468.000000	1.152000   
468.500000	1.262000   
469.000000	1.280000   
469.500000	1.395000   
470.000000	1.265000   
470.500000	1.225000   
471.000000	1.517000   
471.500000	1.406000   
472.000000	1.133000   
472.500000	1.121000   
473.000000	1.240000   
473.500000	1.324000   
474.000000	1.185000   
474.500000	1.250000   
475.000000	1.085000   
475.500000	1.166000   
476.000000	1.534000   
476.500000	1.308000   
477.000000	1.003000   
477.500000	1.364000   
478.000000	1.388000   
478.500000	1.316000   
479.000000	1.510000   
479.500000	1.281000   
480.000000	1.112000   
480.500000	1.214000   
481.000000	1.337000   
481.500000	1.322000   
482.000000	1.416000   
482.500000	1.272000   
483.000000	1.198000   
483.500000	1.292000   
484.000000	1.216000   
484.500000	1.182000   
485.000000	1.360000   
485.500000	1.307000   
486.000000	1.383000   
486.500000	1.475000   
487.000000	1.465000   
487.500000	1.253000   
488.000000	1.413000   
488.500000	1.250000   
489.000000	1.298000   
489.500000	1.566000   
490.000000	1.386000   
490.500000	1.306000   
491.000000	1.647000   
491.500000	1.474000   
492.000000	1.505000   
492.500000	1.789000   
493.000000	1.396000   
493.500000	1.335000   
494.000000	1.286000   
494.500000	1.641000   
495.000000	1.469000   
495.500000	1.296000   
496.000000	1.368000   
496.500000	1.134000   
497.000000	1.438000   
497.500000	1.342000   
498.000000	1.519000   
498.500000	1.345000   
499.000000	1.321000   
499.500000	1.406000   
500.000000	1.569000   
500.500000	1.461000   
501.000000	1.450000   
501.500000	1.361000   
502.000000	1.540000   
502.500000	1.368000   
503.000000	1.089000   
503.500000	1.345000   
504.000000	1.168000   
504.500000	1.345000   
505.000000	1.312000   
505.500000	1.360000   
506.000000	1.292000   
506.500000	1.191000   
507.000000	1.117000   
507.500000	1.127000   
508.000000	1.068000   
508.500000	1.053000   
509.000000	1.010000   
509.500000	1.266000   
510.000000	1.291000   
510.500000	1.170000   
511.000000	1.320000   
511.500000	1.327000   
512.000000	1.185000   
512.500000	1.094000   
513.000000	1.174000   
513.500000	1.273000   
514.000000	1.273000   
514.500000	1.349000   
515.000000	1.169000   
515.500000	1.339000   
516.000000	1.286000   
516.500000	1.362000   
517.000000	1.346000   
517.500000	1.296000   
518.000000	1.467000   
518.500000	1.570000   
519.000000	1.253000   
519.500000	1.668000   
520.000000	1.477000   
520.500000	1.612000   
521.000000	1.586000   
521.500000	1.474000   
522.000000	1.209000   
522.500000	1.455000   
523.000000	1.272000   
523.500000	1.507000   
524.000000	1.471000   
524.500000	1.685000   
525.000000	1.532000   
525.500000	1.465000   
526.000000	1.434000   
526.500000	1.639000   
527.000000	1.419000   
527.500000	1.507000   
528.000000	1.445000   
528.500000	1.279000   
529.000000	1.512000   
529.500000	1.497000   
530.000000	1.687000   
530.500000	1.475000   
531.000000	1.701000   
531.500000	1.658000   
532.000000	1.500000   
532.500000	1.554000   
533.000000	1.399000   
533.500000	1.666000   
534.000000	1.541000   
534.500000	1.494000   
535.000000	1.568000   
535.500000	1.415000   
536.000000	1.668000   
536.500000	1.723000   
537.000000	1.791000   
537.500000	1.621000   
538.000000	1.684000   
538.500000	1.523000   
539.000000	1.723000   
539.500000	1.486000   
540.000000	1.630000   
540.500000	1.652000   
541.000000	1.397000   
541.500000	1.820000   
542.000000	1.773000   
542.500000	1.525000   
543.000000	1.625000   
543.500000	1.842000   
544.000000	1.627000   
544.500000	1.774000   
545.000000	1.700000   
545.500000	1.611000   
546.000000	1.572000   
546.500000	1.704000   
547.000000	1.870000   
547.500000	1.749000   
548.000000	1.624000   
548.500000	1.626000   

