PE FL                   SPECTRUM    ASCII       PEDS        1.60        
  -1
016406~1.SP
19/01/24
10:50:30.00
19/01/24
10:50:30.00


548.500000
1









LS45
485.00
10.00
10.00
SCAN
1
16
100
100
0
600
0
1
0
1
7
ON
435 365 
0 0 0
#HDR
-1
-1
#GR
NM
INT 
0.00002384185791015625
0.0
230.000000
0.500000
638
8
156.199000
0.010000
#DATA
230.000000	0.290000   
230.500000	0.184000   
231.000000	0.218000   
231.500000	0.246000   
232.000000	0.261000   
232.500000	0.252000   
233.000000	0.428000   
233.500000	0.495000   
234.000000	0.501000   
234.500000	0.619000   
235.000000	0.603000   
235.500000	0.661000   
236.000000	0.788000   
236.500000	0.755000   
237.000000	0.822000   
237.500000	0.877000   
238.000000	0.687000   
238.500000	0.791000   
239.000000	0.899000   
239.500000	1.075000   
240.000000	1.043000   
240.500000	1.042000   
241.000000	0.907000   
241.500000	0.988000   
242.000000	0.923000   
242.500000	0.862000   
243.000000	0.788000   
243.500000	0.921000   
244.000000	0.824000   
244.500000	0.710000   
245.000000	0.716000   
245.500000	0.630000   
246.000000	0.562999   
246.500000	0.590000   
247.000000	0.674000   
247.500000	0.581000   
248.000000	0.436000   
248.500000	0.375000   
249.000000	0.389000   
249.500000	0.354000   
250.000000	0.320000   
250.500000	0.333000   
251.000000	0.292000   
251.500000	0.309000   
252.000000	0.299000   
252.500000	0.331000   
253.000000	0.278000   
253.500000	0.287000   
254.000000	0.340000   
254.500000	0.381000   
255.000000	0.353000   
255.500000	0.425000   
256.000000	0.493000   
256.500000	0.521000   
257.000000	0.537000   
257.500000	0.581000   
258.000000	0.661000   
258.500000	0.710000   
259.000000	0.779000   
259.500000	0.756000   
260.000000	0.670000   
260.500000	0.776000   
261.000000	0.893000   
261.500000	0.901000   
262.000000	0.838000   
262.500000	0.765000   
263.000000	0.721000   
263.500000	0.792000   
264.000000	0.730000   
264.500000	0.760000   
265.000000	0.723000   
265.500000	0.729000   
266.000000	0.723000   
266.500000	0.594000   
267.000000	0.583000   
267.500000	0.572000   
268.000000	0.559000   
268.500000	0.480000   
269.000000	0.483000   
269.500000	0.323000   
270.000000	0.311000   
270.500000	0.311000   
271.000000	0.338000   
271.500000	0.192000   
272.000000	0.189000   
272.500000	0.153000   
273.000000	0.122000   
273.500000	0.117000   
274.000000	0.087999   
274.500000	0.059000   
275.000000	0.061000   
275.500000	0.033000   
276.000000	0.035000   
276.500000	0.043000   
277.000000	0.049000   
277.500000	0.045000   
278.000000	0.052000   
278.500000	0.037000   
279.000000	0.010000   
279.500000	0.041000   
280.000000	0.036000   
280.500000	0.048000   
281.000000	0.070999   
281.500000	0.052000   
282.000000	0.055000   
282.500000	0.046000   
283.000000	0.045000   
283.500000	0.048000   
284.000000	0.056000   
284.500000	0.049000   
285.000000	0.067000   
285.500000	0.051000   
286.000000	0.068000   
286.500000	0.056000   
287.000000	0.061000   
287.500000	0.047000   
288.000000	0.052000   
288.500000	0.054000   
289.000000	0.055000   
289.500000	0.077000   
290.000000	0.067000   
290.500000	0.048000   
291.000000	0.047000   
291.500000	0.063000   
292.000000	0.048000   
292.500000	0.058000   
293.000000	0.047000   
293.500000	0.065000   
294.000000	0.068000   
294.500000	0.070000   
295.000000	0.051000   
295.500000	0.063000   
296.000000	0.049000   
296.500000	0.049000   
297.000000	0.075000   
297.500000	0.075000   
298.000000	0.061000   
298.500000	0.052000   
299.000000	0.057000   
299.500000	0.022000   
300.000000	0.045000   
300.500000	0.057000   
301.000000	0.059000   
301.500000	0.074000   
302.000000	0.053000   
302.500000	0.090000   
303.000000	0.041000   
303.500000	0.030000   
304.000000	0.046000   
304.500000	0.078000   
305.000000	0.046000   
305.500000	0.060000   
306.000000	0.036000   
306.500000	0.049000   
307.000000	0.063000   
307.500000	0.063000   
308.000000	0.078000   
308.500000	0.077000   
309.000000	0.076000   
309.500000	0.056000   
310.000000	0.061000   
310.500000	0.091000   
311.000000	0.063000   
311.500000	0.035000   
312.000000	0.065000   
312.500000	0.083000   
313.000000	0.058000   
313.500000	0.039000   
314.000000	0.062000   
314.500000	0.085999   
315.000000	0.052000   
315.500000	0.061000   
316.000000	0.071999   
316.500000	0.057000   
317.000000	0.057000   
317.500000	0.054000   
318.000000	0.077000   
318.500000	0.091000   
319.000000	0.082000   
319.500000	0.060000   
320.000000	0.079000   
320.500000	0.091000   
321.000000	0.062000   
321.500000	0.068000   
322.000000	0.067000   
322.500000	0.063000   
323.000000	0.074000   
323.500000	0.058000   
324.000000	0.073000   
324.500000	0.099000   
325.000000	0.099000   
325.500000	0.071999   
326.000000	0.090000   
326.500000	0.093000   
327.000000	0.083000   
327.500000	0.101000   
328.000000	0.081000   
328.500000	0.078000   
329.000000	0.098000   
329.500000	0.080000   
330.000000	0.085000   
330.500000	0.089000   
331.000000	0.098000   
331.500000	0.071999   
332.000000	0.074000   
332.500000	0.104000   
333.000000	0.117000   
333.500000	0.076000   
334.000000	0.064000   
334.500000	0.059000   
335.000000	0.093000   
335.500000	0.103000   
336.000000	0.105000   
336.500000	0.109000   
337.000000	0.116000   
337.500000	0.103000   
338.000000	0.076000   
338.500000	0.115000   
339.000000	0.075000   
339.500000	0.109000   
340.000000	0.092000   
340.500000	0.090000   
341.000000	0.069000   
341.500000	0.070000   
342.000000	0.068000   
342.500000	0.079000   
343.000000	0.085000   
343.500000	0.131000   
344.000000	0.087999   
344.500000	0.074000   
345.000000	0.093000   
345.500000	0.080000   
346.000000	0.062000   
346.500000	0.104000   
347.000000	0.154000   
347.500000	0.082000   
348.000000	0.110000   
348.500000	0.099000   
349.000000	0.106000   
349.500000	0.115000   
350.000000	0.107000   
350.500000	0.116000   
351.000000	0.098000   
351.500000	0.107000   
352.000000	0.144000   
352.500000	0.141000   
353.000000	0.076000   
353.500000	0.109000   
354.000000	0.114000   
354.500000	0.099000   
355.000000	0.148000   
355.500000	0.090000   
356.000000	0.112000   
356.500000	0.084000   
357.000000	0.120000   
357.500000	0.102000   
358.000000	0.085000   
358.500000	0.115000   
359.000000	0.134000   
359.500000	0.107000   
360.000000	0.063000   
360.500000	0.063000   
361.000000	0.099000   
361.500000	0.103000   
362.000000	0.070999   
362.500000	0.108000   
363.000000	0.080000   
363.500000	0.124000   
364.000000	0.102000   
364.500000	0.078000   
365.000000	0.081000   
365.500000	0.098000   
366.000000	0.108000   
366.500000	0.091000   
367.000000	0.111000   
367.500000	0.069000   
368.000000	0.127000   
368.500000	0.086999   
369.000000	0.148000   
369.500000	0.114000   
370.000000	0.105000   
370.500000	0.071999   
371.000000	0.084000   
371.500000	0.122000   
372.000000	0.078000   
372.500000	0.093000   
373.000000	0.116000   
373.500000	0.107000   
374.000000	0.120000   
374.500000	0.079000   
375.000000	0.100000   
375.500000	0.147000   
376.000000	0.124000   
376.500000	0.064000   
377.000000	0.069000   
377.500000	0.118000   
378.000000	0.104000   
378.500000	0.069000   
379.000000	0.104000   
379.500000	0.150000   
380.000000	0.110000   
380.500000	0.101000   
381.000000	0.117000   
381.500000	0.124000   
382.000000	0.121000   
382.500000	0.145000   
383.000000	0.136000   
383.500000	0.142000   
384.000000	0.135000   
384.500000	0.097000   
385.000000	0.112000   
385.500000	0.120000   
386.000000	0.165000   
386.500000	0.158000   
387.000000	0.119000   
387.500000	0.115000   
388.000000	0.092000   
388.500000	0.099000   
389.000000	0.119000   
389.500000	0.146000   
390.000000	0.159000   
390.500000	0.119000   
391.000000	0.120000   
391.500000	0.113000   
392.000000	0.096000   
392.500000	0.095000   
393.000000	0.099000   
393.500000	0.094000   
394.000000	0.120000   
394.500000	0.091000   
395.000000	0.090000   
395.500000	0.140000   
396.000000	0.115000   
396.500000	0.143000   
397.000000	0.102000   
397.500000	0.148000   
398.000000	0.146000   
398.500000	0.156000   
399.000000	0.120000   
399.500000	0.123000   
400.000000	0.137000   
400.500000	0.119000   
401.000000	0.108000   
401.500000	0.129000   
402.000000	0.078000   
402.500000	0.109000   
403.000000	0.078000   
403.500000	0.099000   
404.000000	0.135000   
404.500000	0.151000   
405.000000	0.114000   
405.500000	0.123000   
406.000000	0.153000   
406.500000	0.124000   
407.000000	0.102000   
407.500000	0.123000   
408.000000	0.152000   
408.500000	0.126000   
409.000000	0.112000   
409.500000	0.110000   
410.000000	0.168000   
410.500000	0.131000   
411.000000	0.129000   
411.500000	0.133000   
412.000000	0.123000   
412.500000	0.122000   
413.000000	0.131000   
413.500000	0.167000   
414.000000	0.164000   
414.500000	0.121000   
415.000000	0.133000   
415.500000	0.142000   
416.000000	0.157000   
416.500000	0.160000   
417.000000	0.161000   
417.500000	0.155000   
418.000000	0.164000   
418.500000	0.161000   
419.000000	0.139000   
419.500000	0.140000   
420.000000	0.165000   
420.500000	0.171000   
421.000000	0.150000   
421.500000	0.160000   
422.000000	0.154000   
422.500000	0.156000   
423.000000	0.144000   
423.500000	0.172000   
424.000000	0.191000   
424.500000	0.222000   
425.000000	0.163000   
425.500000	0.187000   
426.000000	0.155000   
426.500000	0.206000   
427.000000	0.186000   
427.500000	0.182000   
428.000000	0.224000   
428.500000	0.253000   
429.000000	0.189000   
429.500000	0.211000   
430.000000	0.191000   
430.500000	0.228000   
431.000000	0.179000   
431.500000	0.159000   
432.000000	0.222000   
432.500000	0.194000   
433.000000	0.198000   
433.500000	0.182000   
434.000000	0.251000   
434.500000	0.190000   
435.000000	0.246000   
435.500000	0.282000   
436.000000	0.297000   
436.500000	0.267000   
437.000000	0.336000   
437.500000	0.248000   
438.000000	0.184000   
438.500000	0.273000   
439.000000	0.295000   
439.500000	0.247000   
440.000000	0.254000   
440.500000	0.250000   
441.000000	0.329000   
441.500000	0.262000   
442.000000	0.241000   
442.500000	0.221000   
443.000000	0.301000   
443.500000	0.294000   
444.000000	0.304000   
444.500000	0.252000   
445.000000	0.333000   
445.500000	0.290000   
446.000000	0.329000   
446.500000	0.271000   
447.000000	0.296000   
447.500000	0.281000   
448.000000	0.335000   
448.500000	0.281000   
449.000000	0.344000   
449.500000	0.314000   
450.000000	0.340000   
450.500000	0.350000   
451.000000	0.469000   
451.500000	0.429000   
452.000000	0.442000   
452.500000	0.440000   
453.000000	0.405000   
453.500000	0.460000   
454.000000	0.399000   
454.500000	0.414000   
455.000000	0.435000   
455.500000	0.417000   
456.000000	0.401000   
456.500000	0.528000   
457.000000	0.556000   
457.500000	0.489000   
458.000000	0.518000   
458.500000	0.560000   
459.000000	0.521000   
459.500000	0.524000   
460.000000	0.648000   
460.500000	0.672000   
461.000000	0.610000   
461.500000	0.681000   
462.000000	0.928000   
462.500000	1.103000   
463.000000	1.389000   
463.500000	1.618000   
464.000000	2.200000   
464.500000	2.758000   
465.000000	3.803000   
465.500000	4.592000   
466.000000	5.965000   
466.500000	7.039000   
467.000000	9.260999   
467.500000	10.729000  
468.000000	13.625000  
468.500000	15.789000  
469.000000	18.576000  
469.500000	22.718000  
470.000000	27.002000  
470.500000	31.334000  
471.000000	37.851000  
471.500000	41.728000  
472.000000	48.904000  
472.500000	54.735000  
473.000000	63.654000  
473.500000	68.156000  
474.000000	74.224999  
474.500000	81.646000  
475.000000	89.721000  
475.500000	96.952000  
476.000000	105.645000 
476.500000	112.772000 
477.000000	118.388000 
477.500000	125.281000 
478.000000	132.199000 
478.500000	137.947000 
479.000000	142.910000 
479.500000	148.239000 
480.000000	150.920000 
480.500000	152.524000 
481.000000	153.875000 
481.500000	156.199000 
482.000000	155.896000 
482.500000	155.241000 
483.000000	155.098000 
483.500000	150.445000 
484.000000	147.414000 
484.500000	143.379000 
485.000000	138.974000 
485.500000	129.100000 
486.000000	123.125000 
486.500000	116.701000 
487.000000	107.587000 
487.500000	100.634000 
488.000000	94.239999  
488.500000	86.269000  
489.000000	77.937000  
489.500000	69.340999  
490.000000	63.586000  
490.500000	55.061000  
491.000000	49.472000  
491.500000	41.657000  
492.000000	36.340000  
492.500000	30.299000  
493.000000	26.786000  
493.500000	20.236000  
494.000000	17.241000  
494.500000	13.702000  
495.000000	11.451000  
495.500000	8.952000   
496.000000	7.007000   
496.500000	5.685000   
497.000000	4.261000   
497.500000	3.190000   
498.000000	2.711000   
498.500000	2.245000   
499.000000	1.947000   
499.500000	1.700000   
500.000000	1.382000   
500.500000	1.265000   
501.000000	1.113000   
501.500000	1.081000   
502.000000	0.956000   
502.500000	0.927000   
503.000000	0.883000   
503.500000	0.845000   
504.000000	0.742000   
504.500000	0.799000   
505.000000	0.733000   
505.500000	0.763000   
506.000000	0.809000   
506.500000	0.796000   
507.000000	0.794000   
507.500000	0.827000   
508.000000	0.625000   
508.500000	0.697000   
509.000000	0.663000   
509.500000	0.892000   
510.000000	0.847000   
510.500000	0.871000   
511.000000	0.812999   
511.500000	0.996000   
512.000000	0.965000   
512.500000	1.074000   
513.000000	1.193000   
513.500000	1.159000   
514.000000	1.211000   
514.500000	1.304000   
515.000000	1.507000   
515.500000	1.616000   
516.000000	1.575000   
516.500000	1.686000   
517.000000	1.953000   
517.500000	1.928000   
518.000000	2.052000   
518.500000	2.245000   
519.000000	2.347000   
519.500000	2.494000   
520.000000	2.619000   
520.500000	2.866000   
521.000000	3.030000   
521.500000	2.996000   
522.000000	2.999000   
522.500000	3.060000   
523.000000	3.475000   
523.500000	3.306000   
524.000000	3.354000   
524.500000	3.332000   
525.000000	3.288000   
525.500000	3.434000   
526.000000	3.716000   
526.500000	3.473000   
527.000000	3.333000   
527.500000	3.397000   
528.000000	3.323000   
528.500000	3.435000   
529.000000	3.260000   
529.500000	3.175000   
530.000000	3.086000   
530.500000	2.675000   
531.000000	2.673000   
531.500000	2.735000   
532.000000	2.427000   
532.500000	2.103000   
533.000000	2.166000   
533.500000	2.056000   
534.000000	1.974000   
534.500000	1.761000   
535.000000	1.546000   
535.500000	1.339000   
536.000000	1.227000   
536.500000	1.131000   
537.000000	1.044000   
537.500000	0.938999   
538.000000	0.817999   
538.500000	0.807000   
539.000000	0.680000   
539.500000	0.593000   
540.000000	0.458000   
540.500000	0.385000   
541.000000	0.322000   
541.500000	0.336000   
542.000000	0.324000   
542.500000	0.289000   
543.000000	0.296000   
543.500000	0.239000   
544.000000	0.225000   
544.500000	0.228000   
545.000000	0.229000   
545.500000	0.206000   
546.000000	0.239000   
546.500000	0.288000   
547.000000	0.177000   
547.500000	0.211000   
548.000000	0.162000   
548.500000	0.173000   

