PE FL                   SPECTRUM    ASCII       PEDS        1.60        
  -1
0145F2~1.SP
19/01/24
12:59:36.00
19/01/24
12:59:36.00


548.500000
1









LS45
250.00
10.00
10.00
SCAN
1
16
100
100
0
600
0
1
0
1
7
ON
550 545 
0 0 0
#HDR
-1
-1
#GR
NM
INT 
0.00002384185791015625
0.0
230.000000
0.500000
638
8
999.999000
1.324000
#DATA
230.000000	1.324000   
230.500000	2.351000   
231.000000	2.349000   
231.500000	2.751000   
232.000000	3.340000   
232.500000	4.245000   
233.000000	5.413000   
233.500000	6.715000   
234.000000	8.337999   
234.500000	10.528000  
235.000000	13.011000  
235.500000	17.110000  
236.000000	22.454000  
236.500000	28.238000  
237.000000	33.427000  
237.500000	39.272000  
238.000000	47.479000  
238.500000	54.479000  
239.000000	63.803000  
239.500000	73.160000  
240.000000	83.679000  
240.500000	92.569000  
241.000000	104.611000 
241.500000	113.977000 
242.000000	128.983000 
242.500000	139.328000 
243.000000	154.106000 
243.500000	167.173000 
244.000000	179.184000 
244.500000	189.781000 
245.000000	202.101000 
245.500000	216.790000 
246.000000	223.886000 
246.500000	235.693000 
247.000000	240.729000 
247.500000	246.499000 
248.000000	248.158000 
248.500000	253.290000 
249.000000	257.272000 
249.500000	258.656000 
250.000000	257.439000 
250.500000	257.039000 
251.000000	250.198000 
251.500000	246.783000 
252.000000	243.319000 
252.500000	236.616000 
253.000000	227.697000 
253.500000	218.472000 
254.000000	205.633000 
254.500000	199.380000 
255.000000	183.309000 
255.500000	176.069000 
256.000000	161.862000 
256.500000	150.796000 
257.000000	138.943000 
257.500000	124.945000 
258.000000	117.348000 
258.500000	108.502000 
259.000000	99.330000  
259.500000	89.869000  
260.000000	82.813999  
260.500000	77.494000  
261.000000	70.538000  
261.500000	65.283000  
262.000000	61.055000  
262.500000	59.152000  
263.000000	59.491000  
263.500000	55.493000  
264.000000	56.118000  
264.500000	55.000000  
265.000000	56.266000  
265.500000	57.499000  
266.000000	58.350000  
266.500000	60.519000  
267.000000	62.735000  
267.500000	63.833000  
268.000000	64.891000  
268.500000	65.431000  
269.000000	67.667000  
269.500000	68.268000  
270.000000	70.224999  
270.500000	69.830000  
271.000000	68.747000  
271.500000	71.199000  
272.000000	68.816999  
272.500000	69.407000  
273.000000	68.266000  
273.500000	68.324000  
274.000000	66.401000  
274.500000	64.406000  
275.000000	62.163000  
275.500000	59.515000  
276.000000	58.011000  
276.500000	54.919000  
277.000000	52.520000  
277.500000	48.276000  
278.000000	46.796000  
278.500000	44.505000  
279.000000	41.726000  
279.500000	39.965000  
280.000000	35.448000  
280.500000	33.048000  
281.000000	30.036000  
281.500000	28.126000  
282.000000	26.167000  
282.500000	24.169000  
283.000000	23.354000  
283.500000	19.590000  
284.000000	19.425000  
284.500000	18.461000  
285.000000	16.957000  
285.500000	16.235000  
286.000000	15.178000  
286.500000	13.262000  
287.000000	13.147000  
287.500000	11.905000  
288.000000	12.005000  
288.500000	12.208000  
289.000000	11.109000  
289.500000	11.599000  
290.000000	11.296000  
290.500000	10.721000  
291.000000	10.074000  
291.500000	10.780000  
292.000000	10.892000  
292.500000	10.125000  
293.000000	11.431000  
293.500000	11.871000  
294.000000	11.920000  
294.500000	11.598000  
295.000000	11.680000  
295.500000	11.744000  
296.000000	12.317000  
296.500000	13.146000  
297.000000	12.819000  
297.500000	13.251000  
298.000000	13.607000  
298.500000	14.186000  
299.000000	13.939000  
299.500000	14.387000  
300.000000	15.287000  
300.500000	15.326000  
301.000000	15.935000  
301.500000	16.275000  
302.000000	15.857000  
302.500000	16.450000  
303.000000	16.602000  
303.500000	17.341000  
304.000000	18.358000  
304.500000	18.672000  
305.000000	17.948000  
305.500000	17.988000  
306.000000	18.473000  
306.500000	20.683000  
307.000000	20.627000  
307.500000	21.063000  
308.000000	21.194000  
308.500000	21.653000  
309.000000	22.474000  
309.500000	23.159000  
310.000000	23.060000  
310.500000	22.747000  
311.000000	23.800000  
311.500000	24.715000  
312.000000	26.079000  
312.500000	27.432000  
313.000000	28.619000  
313.500000	27.338000  
314.000000	28.065000  
314.500000	29.729000  
315.000000	30.684000  
315.500000	30.118000  
316.000000	29.954000  
316.500000	32.214000  
317.000000	32.248000  
317.500000	33.330000  
318.000000	34.684000  
318.500000	35.529000  
319.000000	37.250000  
319.500000	38.644000  
320.000000	40.135000  
320.500000	40.292000  
321.000000	42.338000  
321.500000	44.200000  
322.000000	42.839000  
322.500000	45.018000  
323.000000	46.354000  
323.500000	47.472000  
324.000000	50.371000  
324.500000	51.260000  
325.000000	52.760000  
325.500000	54.810000  
326.000000	56.137000  
326.500000	59.260000  
327.000000	59.026000  
327.500000	59.002000  
328.000000	62.049000  
328.500000	62.537000  
329.000000	65.247000  
329.500000	66.400000  
330.000000	68.775000  
330.500000	70.267000  
331.000000	72.891000  
331.500000	75.506000  
332.000000	77.465999  
332.500000	79.803000  
333.000000	80.967000  
333.500000	82.193000  
334.000000	86.101000  
334.500000	87.072999  
335.000000	87.739999  
335.500000	86.712000  
336.000000	90.379000  
336.500000	91.922000  
337.000000	93.940000  
337.500000	97.093999  
338.000000	97.947999  
338.500000	98.264000  
339.000000	98.793000  
339.500000	102.901000 
340.000000	103.847000 
340.500000	105.432000 
341.000000	105.782000 
341.500000	109.456000 
342.000000	108.775000 
342.500000	110.912000 
343.000000	113.707000 
343.500000	113.491000 
344.000000	116.734000 
344.500000	116.602000 
345.000000	118.987000 
345.500000	120.489000 
346.000000	124.898000 
346.500000	122.056000 
347.000000	124.514000 
347.500000	124.027000 
348.000000	127.028000 
348.500000	127.746000 
349.000000	126.932000 
349.500000	128.779000 
350.000000	131.686000 
350.500000	133.268000 
351.000000	134.290000 
351.500000	133.094000 
352.000000	138.709000 
352.500000	135.771000 
353.000000	136.484000 
353.500000	137.608000 
354.000000	136.429000 
354.500000	135.448000 
355.000000	134.503000 
355.500000	138.731000 
356.000000	139.946000 
356.500000	139.934000 
357.000000	137.858000 
357.500000	140.120000 
358.000000	138.182000 
358.500000	137.692000 
359.000000	138.876000 
359.500000	139.667000 
360.000000	139.920000 
360.500000	139.037000 
361.000000	137.978000 
361.500000	139.252000 
362.000000	140.885000 
362.500000	140.744000 
363.000000	138.209000 
363.500000	139.477000 
364.000000	139.769000 
364.500000	139.152000 
365.000000	141.031000 
365.500000	141.077000 
366.000000	135.680000 
366.500000	137.305000 
367.000000	139.331000 
367.500000	135.872000 
368.000000	137.513000 
368.500000	137.232000 
369.000000	139.806000 
369.500000	139.259000 
370.000000	138.244000 
370.500000	135.617000 
371.000000	133.655000 
371.500000	138.791000 
372.000000	137.334000 
372.500000	138.430000 
373.000000	136.801000 
373.500000	139.003000 
374.000000	138.222000 
374.500000	135.828000 
375.000000	136.915000 
375.500000	138.231000 
376.000000	137.671000 
376.500000	135.587000 
377.000000	136.820000 
377.500000	137.986000 
378.000000	136.511000 
378.500000	135.716000 
379.000000	136.528000 
379.500000	134.270000 
380.000000	136.154000 
380.500000	132.165000 
381.000000	133.090000 
381.500000	133.193000 
382.000000	131.157000 
382.500000	133.213000 
383.000000	130.637000 
383.500000	130.551000 
384.000000	129.359000 
384.500000	127.414000 
385.000000	127.118000 
385.500000	126.285000 
386.000000	122.636000 
386.500000	124.553000 
387.000000	125.747000 
387.500000	124.519000 
388.000000	124.587000 
388.500000	124.193000 
389.000000	124.179000 
389.500000	123.356000 
390.000000	122.500000 
390.500000	121.731000 
391.000000	120.054000 
391.500000	120.750000 
392.000000	120.697000 
392.500000	121.316000 
393.000000	119.148000 
393.500000	118.917000 
394.000000	119.264000 
394.500000	115.771000 
395.000000	118.508000 
395.500000	116.178000 
396.000000	113.230000 
396.500000	114.354000 
397.000000	114.996000 
397.500000	115.713000 
398.000000	114.177000 
398.500000	113.390000 
399.000000	114.010000 
399.500000	114.109000 
400.000000	111.071000 
400.500000	110.901000 
401.000000	111.404000 
401.500000	110.802000 
402.000000	113.664000 
402.500000	115.057000 
403.000000	110.656000 
403.500000	113.169000 
404.000000	113.440000 
404.500000	112.122000 
405.000000	112.894000 
405.500000	112.045000 
406.000000	112.485000 
406.500000	112.757000 
407.000000	110.839000 
407.500000	111.419000 
408.000000	112.750000 
408.500000	111.761000 
409.000000	109.391000 
409.500000	110.235000 
410.000000	111.776000 
410.500000	111.216000 
411.000000	111.627000 
411.500000	110.493000 
412.000000	110.595000 
412.500000	109.796000 
413.000000	111.069000 
413.500000	110.610000 
414.000000	111.905000 
414.500000	109.423000 
415.000000	108.613000 
415.500000	107.680000 
416.000000	109.698000 
416.500000	113.382000 
417.000000	110.895000 
417.500000	111.900000 
418.000000	110.173000 
418.500000	109.529000 
419.000000	109.101000 
419.500000	112.958000 
420.000000	111.941000 
420.500000	111.566000 
421.000000	110.380000 
421.500000	111.752000 
422.000000	113.336000 
422.500000	113.754000 
423.000000	116.116000 
423.500000	117.217000 
424.000000	113.150000 
424.500000	115.786000 
425.000000	117.261000 
425.500000	115.647000 
426.000000	116.822000 
426.500000	118.019000 
427.000000	118.472000 
427.500000	118.382000 
428.000000	118.624000 
428.500000	121.111000 
429.000000	120.670000 
429.500000	117.341000 
430.000000	120.674000 
430.500000	122.024000 
431.000000	122.406000 
431.500000	123.465000 
432.000000	124.885000 
432.500000	123.124000 
433.000000	124.398000 
433.500000	124.254000 
434.000000	125.812000 
434.500000	125.867000 
435.000000	125.304000 
435.500000	123.861000 
436.000000	127.354000 
436.500000	130.038000 
437.000000	128.284000 
437.500000	129.867000 
438.000000	129.692000 
438.500000	129.091000 
439.000000	133.545000 
439.500000	131.758000 
440.000000	127.942000 
440.500000	129.594000 
441.000000	130.376000 
441.500000	131.161000 
442.000000	130.558000 
442.500000	132.331000 
443.000000	131.787000 
443.500000	133.052000 
444.000000	130.605000 
444.500000	131.321000 
445.000000	129.344000 
445.500000	130.346000 
446.000000	134.320000 
446.500000	130.359000 
447.000000	130.415000 
447.500000	131.271000 
448.000000	129.751000 
448.500000	128.358000 
449.000000	130.042000 
449.500000	131.569000 
450.000000	128.251000 
450.500000	129.096000 
451.000000	128.968000 
451.500000	129.096000 
452.000000	130.493000 
452.500000	127.696000 
453.000000	128.370000 
453.500000	128.599000 
454.000000	126.787000 
454.500000	125.855000 
455.000000	126.500000 
455.500000	125.975000 
456.000000	125.132000 
456.500000	125.561000 
457.000000	125.115000 
457.500000	123.917000 
458.000000	123.553000 
458.500000	125.612000 
459.000000	125.376000 
459.500000	121.294000 
460.000000	122.860000 
460.500000	119.067000 
461.000000	120.437000 
461.500000	120.761000 
462.000000	118.498000 
462.500000	120.002000 
463.000000	117.276000 
463.500000	117.590000 
464.000000	115.297000 
464.500000	117.055000 
465.000000	116.584000 
465.500000	114.510000 
466.000000	112.896000 
466.500000	115.239000 
467.000000	113.925000 
467.500000	113.373000 
468.000000	113.229000 
468.500000	114.071000 
469.000000	112.464000 
469.500000	111.667000 
470.000000	112.028000 
470.500000	111.580000 
471.000000	112.893000 
471.500000	111.534000 
472.000000	113.152000 
472.500000	111.323000 
473.000000	113.584000 
473.500000	114.882000 
474.000000	114.792000 
474.500000	116.785000 
475.000000	119.511000 
475.500000	120.968000 
476.000000	122.892000 
476.500000	127.166000 
477.000000	131.310000 
477.500000	137.491000 
478.000000	145.787000 
478.500000	149.586000 
479.000000	156.320000 
479.500000	163.721000 
480.000000	174.334000 
480.500000	189.058000 
481.000000	206.399000 
481.500000	217.088000 
482.000000	238.528000 
482.500000	268.982000 
483.000000	299.516000 
483.500000	345.494000 
484.000000	386.072000 
484.500000	429.930000 
485.000000	473.761000 
485.500000	529.634000 
486.000000	649.634000 
486.500000	656.978000 
487.000000	765.682000 
487.500000	773.062000 
488.000000	877.571000 
488.500000	889.090000 
489.000000	999.999000 
489.500000	999.999000 
490.000000	999.999000 
490.500000	999.999000 
491.000000	999.999000 
491.500000	999.999000 
492.000000	999.999000 
492.500000	999.999000 
493.000000	999.999000 
493.500000	999.999000 
494.000000	999.999000 
494.500000	999.999000 
495.000000	999.999000 
495.500000	999.999000 
496.000000	999.999000 
496.500000	999.999000 
497.000000	999.999000 
497.500000	999.999000 
498.000000	999.999000 
498.500000	999.999000 
499.000000	999.999000 
499.500000	999.999000 
500.000000	999.999000 
500.500000	999.999000 
501.000000	999.999000 
501.500000	999.999000 
502.000000	999.999000 
502.500000	999.999000 
503.000000	999.999000 
503.500000	999.999000 
504.000000	999.999000 
504.500000	999.999000 
505.000000	999.999000 
505.500000	999.999000 
506.000000	999.999000 
506.500000	999.999000 
507.000000	999.999000 
507.500000	999.999000 
508.000000	999.999000 
508.500000	999.999000 
509.000000	999.999000 
509.500000	950.952000 
510.000000	939.227000 
510.500000	888.852000 
511.000000	863.660000 
511.500000	807.539000 
512.000000	756.160999 
512.500000	715.298000 
513.000000	664.304999 
513.500000	639.343000 
514.000000	594.515000 
514.500000	541.255000 
515.000000	488.938000 
515.500000	474.738000 
516.000000	427.889000 
516.500000	403.364000 
517.000000	364.751000 
517.500000	342.520000 
518.000000	311.444000 
518.500000	295.684000 
519.000000	268.410000 
519.500000	251.692000 
520.000000	237.694000 
520.500000	219.946000 
521.000000	203.946000 
521.500000	187.289000 
522.000000	169.438000 
522.500000	162.326000 
523.000000	152.883000 
523.500000	143.611000 
524.000000	131.511000 
524.500000	126.365000 
525.000000	120.726000 
525.500000	117.760000 
526.000000	113.587000 
526.500000	108.991000 
527.000000	107.049000 
527.500000	105.917000 
528.000000	107.104000 
528.500000	107.267000 
529.000000	105.971000 
529.500000	111.724000 
530.000000	113.727000 
530.500000	114.716000 
531.000000	119.031000 
531.500000	122.475000 
532.000000	128.532000 
532.500000	134.089000 
533.000000	138.848000 
533.500000	143.833000 
534.000000	148.362000 
534.500000	153.146000 
535.000000	158.661000 
535.500000	162.934000 
536.000000	170.145000 
536.500000	175.478000 
537.000000	178.639000 
537.500000	184.244000 
538.000000	193.720000 
538.500000	193.877000 
539.000000	195.717000 
539.500000	198.071000 
540.000000	200.704000 
540.500000	201.582000 
541.000000	202.951000 
541.500000	199.151000 
542.000000	199.207000 
542.500000	200.489000 
543.000000	199.908000 
543.500000	196.980000 
544.000000	191.367000 
544.500000	188.889000 
545.000000	185.603000 
545.500000	185.756000 
546.000000	182.315000 
546.500000	177.004000 
547.000000	173.368000 
547.500000	167.052000 
548.000000	167.129000 
548.500000	159.864000 

