PE FL                   SPECTRUM    ASCII       PEDS        1.60        
  -1
0145F6~1.SP
19/01/24
13:00:21.00
19/01/24
13:00:20.00


548.500000
1









LS45
255.00
10.00
10.00
SCAN
1
16
100
100
0
600
0
1
0
1
7
ON
550 545 
0 0 0
#HDR
-1
-1
#GR
NM
INT 
0.00002384185791015625
0.0
230.000000
0.500000
638
8
999.999000
1.714000
#DATA
230.000000	1.714000   
230.500000	1.876000   
231.000000	1.998000   
231.500000	1.946000   
232.000000	2.043000   
232.500000	2.083000   
233.000000	2.020000   
233.500000	2.407000   
234.000000	2.481000   
234.500000	3.035000   
235.000000	3.461000   
235.500000	4.491000   
236.000000	5.345000   
236.500000	7.001000   
237.000000	8.103000   
237.500000	9.404999   
238.000000	11.034000  
238.500000	14.288000  
239.000000	17.403000  
239.500000	20.010000  
240.000000	24.157000  
240.500000	29.052000  
241.000000	35.437000  
241.500000	41.118000  
242.000000	48.846000  
242.500000	56.395000  
243.000000	67.244000  
243.500000	74.402000  
244.000000	86.517000  
244.500000	99.015000  
245.000000	112.140000 
245.500000	122.757000 
246.000000	135.620000 
246.500000	149.855000 
247.000000	164.618000 
247.500000	182.722000 
248.000000	202.224000 
248.500000	221.207000 
249.000000	237.645000 
249.500000	258.518000 
250.000000	276.177000 
250.500000	294.805000 
251.000000	311.399000 
251.500000	327.915000 
252.000000	342.472000 
252.500000	353.105000 
253.000000	366.881000 
253.500000	378.706000 
254.000000	384.635000 
254.500000	389.142000 
255.000000	399.990000 
255.500000	399.876000 
256.000000	399.921000 
256.500000	403.298000 
257.000000	404.156000 
257.500000	397.001000 
258.000000	392.493000 
258.500000	382.901000 
259.000000	371.105000 
259.500000	348.229000 
260.000000	334.856000 
260.500000	321.317000 
261.000000	302.056000 
261.500000	280.504000 
262.000000	265.248000 
262.500000	239.585000 
263.000000	227.453000 
263.500000	210.535000 
264.000000	194.197000 
264.500000	177.430000 
265.000000	163.173000 
265.500000	150.843000 
266.000000	133.838000 
266.500000	120.521000 
267.000000	109.314000 
267.500000	98.938000  
268.000000	85.360000  
268.500000	77.303000  
269.000000	70.098000  
269.500000	64.537000  
270.000000	58.438000  
270.500000	57.475000  
271.000000	54.885000  
271.500000	52.777000  
272.000000	54.139000  
272.500000	55.472000  
273.000000	58.037000  
273.500000	61.222000  
274.000000	61.001000  
274.500000	64.637000  
275.000000	64.114999  
275.500000	67.218000  
276.000000	69.184000  
276.500000	72.251000  
277.000000	75.173000  
277.500000	75.202000  
278.000000	74.669000  
278.500000	77.107000  
279.000000	78.268000  
279.500000	78.181000  
280.000000	77.561000  
280.500000	77.886000  
281.000000	78.270000  
281.500000	77.373000  
282.000000	74.997000  
282.500000	73.985000  
283.000000	73.851000  
283.500000	69.431000  
284.000000	68.246000  
284.500000	65.989999  
285.000000	64.683000  
285.500000	62.376000  
286.000000	60.199000  
286.500000	55.212000  
287.000000	55.859000  
287.500000	51.739000  
288.000000	47.659000  
288.500000	44.410000  
289.000000	42.461000  
289.500000	39.659000  
290.000000	38.675000  
290.500000	35.734000  
291.000000	34.925000  
291.500000	31.194000  
292.000000	28.971000  
292.500000	27.528000  
293.000000	25.454000  
293.500000	24.927000  
294.000000	23.459000  
294.500000	22.377000  
295.000000	22.129000  
295.500000	21.269000  
296.000000	20.734000  
296.500000	20.415000  
297.000000	19.232000  
297.500000	19.164000  
298.000000	19.410000  
298.500000	19.973000  
299.000000	20.660000  
299.500000	21.896000  
300.000000	20.889000  
300.500000	21.752000  
301.000000	22.698000  
301.500000	23.138000  
302.000000	23.391000  
302.500000	21.768000  
303.000000	24.301000  
303.500000	24.114000  
304.000000	24.759000  
304.500000	24.663000  
305.000000	25.973000  
305.500000	25.288000  
306.000000	25.955000  
306.500000	27.407000  
307.000000	27.614000  
307.500000	27.890000  
308.000000	27.778000  
308.500000	30.121000  
309.000000	29.162000  
309.500000	31.152000  
310.000000	31.355000  
310.500000	33.465000  
311.000000	33.660000  
311.500000	34.220000  
312.000000	34.194000  
312.500000	33.742000  
313.000000	35.802000  
313.500000	35.258000  
314.000000	35.657000  
314.500000	38.747000  
315.000000	39.779000  
315.500000	41.313000  
316.000000	41.580000  
316.500000	40.704000  
317.000000	43.097000  
317.500000	44.181000  
318.000000	45.478000  
318.500000	45.737000  
319.000000	46.007000  
319.500000	49.090000  
320.000000	49.807000  
320.500000	49.923000  
321.000000	52.411000  
321.500000	53.801000  
322.000000	54.922000  
322.500000	55.235000  
323.000000	57.987000  
323.500000	58.649000  
324.000000	59.013000  
324.500000	60.074000  
325.000000	63.639000  
325.500000	65.964000  
326.000000	66.524000  
326.500000	67.381000  
327.000000	68.771000  
327.500000	69.864000  
328.000000	72.069000  
328.500000	72.747000  
329.000000	75.679000  
329.500000	75.700999  
330.000000	79.899000  
330.500000	79.287000  
331.000000	81.145000  
331.500000	84.090000  
332.000000	86.578000  
332.500000	87.899000  
333.000000	89.999000  
333.500000	90.374000  
334.000000	92.977999  
334.500000	93.977999  
335.000000	92.840000  
335.500000	94.450000  
336.000000	98.402000  
336.500000	97.171000  
337.000000	97.343999  
337.500000	99.741000  
338.000000	102.342000 
338.500000	103.788000 
339.000000	104.847000 
339.500000	104.275000 
340.000000	108.845000 
340.500000	107.422000 
341.000000	108.606000 
341.500000	109.794000 
342.000000	111.164000 
342.500000	112.380000 
343.000000	117.155000 
343.500000	114.961000 
344.000000	116.645000 
344.500000	117.782000 
345.000000	118.298000 
345.500000	117.356000 
346.000000	120.417000 
346.500000	120.974000 
347.000000	121.450000 
347.500000	122.294000 
348.000000	123.908000 
348.500000	124.473000 
349.000000	123.373000 
349.500000	124.988000 
350.000000	126.974000 
350.500000	128.468000 
351.000000	126.728000 
351.500000	131.966000 
352.000000	129.504000 
352.500000	128.752000 
353.000000	129.477000 
353.500000	131.445000 
354.000000	129.269000 
354.500000	130.975000 
355.000000	129.386000 
355.500000	128.434000 
356.000000	129.744000 
356.500000	133.381000 
357.000000	132.561000 
357.500000	131.661000 
358.000000	132.238000 
358.500000	129.094000 
359.000000	129.432000 
359.500000	128.400000 
360.000000	128.171000 
360.500000	129.382000 
361.000000	130.558000 
361.500000	130.268000 
362.000000	128.495000 
362.500000	127.450000 
363.000000	127.502000 
363.500000	127.039000 
364.000000	128.269000 
364.500000	126.544000 
365.000000	124.794000 
365.500000	126.240000 
366.000000	128.279000 
366.500000	129.259000 
367.000000	125.809000 
367.500000	127.121000 
368.000000	124.378000 
368.500000	125.486000 
369.000000	126.614000 
369.500000	129.390000 
370.000000	128.234000 
370.500000	126.967000 
371.000000	126.829000 
371.500000	127.145000 
372.000000	127.220000 
372.500000	126.279000 
373.000000	125.181000 
373.500000	123.355000 
374.000000	125.637000 
374.500000	124.351000 
375.000000	125.820000 
375.500000	125.520000 
376.000000	124.880000 
376.500000	121.456000 
377.000000	122.867000 
377.500000	123.284000 
378.000000	122.783000 
378.500000	119.520000 
379.000000	122.469000 
379.500000	121.596000 
380.000000	121.478000 
380.500000	119.761000 
381.000000	123.195000 
381.500000	122.406000 
382.000000	120.109000 
382.500000	120.016000 
383.000000	119.017000 
383.500000	117.091000 
384.000000	117.458000 
384.500000	117.295000 
385.000000	116.615000 
385.500000	115.952000 
386.000000	113.876000 
386.500000	113.096000 
387.000000	112.946000 
387.500000	116.234000 
388.000000	114.685000 
388.500000	114.001000 
389.000000	111.790000 
389.500000	111.805000 
390.000000	108.718000 
390.500000	109.862000 
391.000000	109.309000 
391.500000	109.826000 
392.000000	109.227000 
392.500000	109.595000 
393.000000	108.493000 
393.500000	107.955000 
394.000000	107.345000 
394.500000	107.357000 
395.000000	107.312000 
395.500000	106.782000 
396.000000	105.522000 
396.500000	105.776000 
397.000000	105.131000 
397.500000	103.597000 
398.000000	103.894000 
398.500000	106.165000 
399.000000	105.609000 
399.500000	104.757000 
400.000000	102.674000 
400.500000	101.546000 
401.000000	102.509000 
401.500000	103.104000 
402.000000	101.702000 
402.500000	102.554000 
403.000000	102.203000 
403.500000	100.672000 
404.000000	104.072000 
404.500000	101.141000 
405.000000	103.721000 
405.500000	103.703000 
406.000000	103.605000 
406.500000	104.007000 
407.000000	102.581000 
407.500000	100.635000 
408.000000	103.139000 
408.500000	103.831000 
409.000000	104.707000 
409.500000	104.756000 
410.000000	105.214000 
410.500000	101.565000 
411.000000	103.818000 
411.500000	104.132000 
412.000000	103.069000 
412.500000	102.877000 
413.000000	106.565000 
413.500000	106.455000 
414.000000	105.651000 
414.500000	104.528000 
415.000000	104.190000 
415.500000	106.206000 
416.000000	107.797000 
416.500000	105.467000 
417.000000	106.083000 
417.500000	106.244000 
418.000000	107.682000 
418.500000	107.128000 
419.000000	107.877000 
419.500000	107.644000 
420.000000	108.867000 
420.500000	109.340000 
421.000000	111.519000 
421.500000	112.232000 
422.000000	111.049000 
422.500000	113.406000 
423.000000	114.132000 
423.500000	113.553000 
424.000000	113.186000 
424.500000	114.286000 
425.000000	115.654000 
425.500000	117.089000 
426.000000	119.566000 
426.500000	120.874000 
427.000000	120.007000 
427.500000	118.872000 
428.000000	119.136000 
428.500000	123.363000 
429.000000	120.903000 
429.500000	120.522000 
430.000000	122.242000 
430.500000	123.819000 
431.000000	124.137000 
431.500000	126.975000 
432.000000	125.041000 
432.500000	128.739000 
433.000000	128.948000 
433.500000	127.600000 
434.000000	128.841000 
434.500000	129.578000 
435.000000	129.608000 
435.500000	130.652000 
436.000000	132.452000 
436.500000	130.709000 
437.000000	133.491000 
437.500000	132.330000 
438.000000	133.870000 
438.500000	134.242000 
439.000000	133.275000 
439.500000	134.944000 
440.000000	135.467000 
440.500000	140.068000 
441.000000	137.082000 
441.500000	137.227000 
442.000000	135.844000 
442.500000	138.431000 
443.000000	136.591000 
443.500000	136.403000 
444.000000	137.787000 
444.500000	136.576000 
445.000000	135.144000 
445.500000	138.734000 
446.000000	140.795000 
446.500000	138.646000 
447.000000	137.916000 
447.500000	137.012000 
448.000000	138.793000 
448.500000	137.045000 
449.000000	139.278000 
449.500000	139.426000 
450.000000	139.043000 
450.500000	138.561000 
451.000000	138.019000 
451.500000	136.786000 
452.000000	136.374000 
452.500000	136.054000 
453.000000	136.076000 
453.500000	138.165000 
454.000000	137.796000 
454.500000	133.002000 
455.000000	133.437000 
455.500000	135.022000 
456.000000	133.503000 
456.500000	133.489000 
457.000000	132.861000 
457.500000	132.706000 
458.000000	132.306000 
458.500000	134.425000 
459.000000	130.404000 
459.500000	130.355000 
460.000000	131.181000 
460.500000	129.189000 
461.000000	128.377000 
461.500000	127.910000 
462.000000	126.366000 
462.500000	127.457000 
463.000000	125.207000 
463.500000	128.083000 
464.000000	126.939000 
464.500000	126.922000 
465.000000	125.937000 
465.500000	124.816000 
466.000000	123.749000 
466.500000	121.799000 
467.000000	120.970000 
467.500000	122.198000 
468.000000	121.935000 
468.500000	120.165000 
469.000000	125.025000 
469.500000	118.873000 
470.000000	119.980000 
470.500000	121.043000 
471.000000	117.928000 
471.500000	117.893000 
472.000000	116.696000 
472.500000	118.521000 
473.000000	118.479000 
473.500000	120.304000 
474.000000	116.985000 
474.500000	116.253000 
475.000000	118.441000 
475.500000	118.196000 
476.000000	116.830000 
476.500000	117.418000 
477.000000	114.237000 
477.500000	115.792000 
478.000000	117.087000 
478.500000	117.026000 
479.000000	117.381000 
479.500000	114.569000 
480.000000	118.107000 
480.500000	117.972000 
481.000000	119.296000 
481.500000	120.456000 
482.000000	120.762000 
482.500000	123.760000 
483.000000	127.758000 
483.500000	137.640000 
484.000000	138.509000 
484.500000	146.561000 
485.000000	153.804000 
485.500000	165.618000 
486.000000	176.795000 
486.500000	190.819000 
487.000000	199.598000 
487.500000	215.990000 
488.000000	232.265000 
488.500000	251.612000 
489.000000	279.084000 
489.500000	299.082000 
490.000000	312.617000 
490.500000	340.057000 
491.000000	360.000000 
491.500000	393.859000 
492.000000	419.544000 
492.500000	468.013000 
493.000000	493.678000 
493.500000	543.921000 
494.000000	580.157000 
494.500000	618.982999 
495.000000	657.429999 
495.500000	698.672000 
496.000000	728.443000 
496.500000	770.220000 
497.000000	815.693000 
497.500000	859.114000 
498.000000	887.521000 
498.500000	935.977000 
499.000000	978.640000 
499.500000	999.999000 
500.000000	999.999000 
500.500000	999.999000 
501.000000	999.999000 
501.500000	999.999000 
502.000000	999.999000 
502.500000	999.999000 
503.000000	999.999000 
503.500000	999.999000 
504.000000	999.999000 
504.500000	999.999000 
505.000000	999.999000 
505.500000	999.999000 
506.000000	999.999000 
506.500000	999.999000 
507.000000	999.999000 
507.500000	999.999000 
508.000000	999.999000 
508.500000	999.999000 
509.000000	999.999000 
509.500000	999.999000 
510.000000	999.999000 
510.500000	999.999000 
511.000000	999.999000 
511.500000	999.999000 
512.000000	999.999000 
512.500000	999.999000 
513.000000	999.999000 
513.500000	999.999000 
514.000000	999.999000 
514.500000	999.999000 
515.000000	999.999000 
515.500000	999.999000 
516.000000	999.999000 
516.500000	999.999000 
517.000000	999.999000 
517.500000	999.999000 
518.000000	999.999000 
518.500000	999.999000 
519.000000	999.999000 
519.500000	999.999000 
520.000000	999.999000 
520.500000	999.999000 
521.000000	999.999000 
521.500000	999.999000 
522.000000	999.999000 
522.500000	999.999000 
523.000000	999.999000 
523.500000	999.999000 
524.000000	999.999000 
524.500000	977.457000 
525.000000	917.237000 
525.500000	792.613000 
526.000000	780.308000 
526.500000	663.747000 
527.000000	653.350000 
527.500000	598.802000 
528.000000	536.434999 
528.500000	426.491000 
529.000000	417.797000 
529.500000	371.809000 
530.000000	318.992000 
530.500000	278.963000 
531.000000	240.303000 
531.500000	213.553000 
532.000000	191.084000 
532.500000	171.185000 
533.000000	153.660000 
533.500000	143.007000 
534.000000	137.079000 
534.500000	127.051000 
535.000000	121.126000 
535.500000	114.469000 
536.000000	110.304000 
536.500000	107.461000 
537.000000	107.521000 
537.500000	103.560000 
538.000000	104.326000 
538.500000	104.594000 
539.000000	104.577000 
539.500000	103.438000 
540.000000	104.034000 
540.500000	104.275000 
541.000000	106.715000 
541.500000	106.435000 
542.000000	110.328000 
542.500000	111.918000 
543.000000	113.970000 
543.500000	116.801000 
544.000000	113.952000 
544.500000	118.457000 
545.000000	120.632000 
545.500000	122.452000 
546.000000	124.304000 
546.500000	121.535000 
547.000000	122.466000 
547.500000	126.501000 
548.000000	129.145000 
548.500000	128.812000 

