PE FL                   SPECTRUM    ASCII       PEDS        1.60        
  -1
0139F2~1.SP
19/01/24
13:04:07.00
19/01/24
13:04:07.00


548.500000
1









LS45
280.00
10.00
10.00
SCAN
1
16
100
100
0
600
0
1
0
1
7
ON
550 545 
0 0 0
#HDR
-1
-1
#GR
NM
INT 
0.00002384185791015625
0.0
230.000000
0.500000
638
8
999.999000
1.128000
#DATA
230.000000	1.635000   
230.500000	1.282000   
231.000000	1.368000   
231.500000	1.578000   
232.000000	1.429000   
232.500000	1.308000   
233.000000	1.315000   
233.500000	1.413000   
234.000000	1.332000   
234.500000	1.128000   
235.000000	1.251000   
235.500000	1.664000   
236.000000	1.641000   
236.500000	1.515000   
237.000000	1.662000   
237.500000	1.648000   
238.000000	1.330000   
238.500000	1.745000   
239.000000	1.512000   
239.500000	1.705000   
240.000000	1.523000   
240.500000	1.427000   
241.000000	1.491000   
241.500000	1.490000   
242.000000	1.692000   
242.500000	1.841000   
243.000000	2.184000   
243.500000	1.963000   
244.000000	1.712000   
244.500000	1.834000   
245.000000	1.771000   
245.500000	1.915000   
246.000000	1.886000   
246.500000	1.851000   
247.000000	1.880000   
247.500000	1.978000   
248.000000	1.936000   
248.500000	2.480000   
249.000000	2.450000   
249.500000	2.545000   
250.000000	2.589000   
250.500000	2.806000   
251.000000	2.527000   
251.500000	2.474000   
252.000000	2.535000   
252.500000	2.842000   
253.000000	2.723000   
253.500000	2.926000   
254.000000	2.804000   
254.500000	2.849000   
255.000000	3.689000   
255.500000	3.689000   
256.000000	3.407000   
256.500000	3.908000   
257.000000	4.979000   
257.500000	4.553000   
258.000000	6.160000   
258.500000	6.962000   
259.000000	7.954000   
259.500000	10.060000  
260.000000	12.549000  
260.500000	16.881000  
261.000000	19.916000  
261.500000	25.500000  
262.000000	32.065000  
262.500000	39.456000  
263.000000	46.285000  
263.500000	57.736000  
264.000000	71.200000  
264.500000	85.178000  
265.000000	101.649000 
265.500000	120.540000 
266.000000	140.051000 
266.500000	161.032000 
267.000000	186.858000 
267.500000	210.209000 
268.000000	242.230000 
268.500000	271.170000 
269.000000	312.924000 
269.500000	346.989000 
270.000000	386.817000 
270.500000	418.162000 
271.000000	451.795000 
271.500000	498.095000 
272.000000	528.976000 
272.500000	571.251000 
273.000000	606.823000 
273.500000	653.482999 
274.000000	674.527000 
274.500000	713.863000 
275.000000	733.918000 
275.500000	768.982000 
276.000000	791.376000 
276.500000	811.540000 
277.000000	834.005000 
277.500000	844.224000 
278.000000	849.734000 
278.500000	849.806000 
279.000000	847.820000 
279.500000	839.207000 
280.000000	830.665000 
280.500000	812.235000 
281.000000	790.092000 
281.500000	766.458000 
282.000000	740.069000 
282.500000	712.721000 
283.000000	682.687000 
283.500000	643.910000 
284.000000	616.545000 
284.500000	564.706000 
285.000000	534.883000 
285.500000	494.449000 
286.000000	456.200000 
286.500000	419.154000 
287.000000	387.928000 
287.500000	348.557000 
288.000000	315.941000 
288.500000	280.263000 
289.000000	249.632000 
289.500000	222.212000 
290.000000	199.429000 
290.500000	179.248000 
291.000000	157.301000 
291.500000	140.069000 
292.000000	123.693000 
292.500000	111.933000 
293.000000	99.559000  
293.500000	90.389000  
294.000000	82.245000  
294.500000	79.628000  
295.000000	73.674000  
295.500000	72.599000  
296.000000	71.661000  
296.500000	72.897000  
297.000000	73.444999  
297.500000	76.651000  
298.000000	80.402000  
298.500000	84.224000  
299.000000	89.133000  
299.500000	93.496000  
300.000000	96.364999  
300.500000	102.297000 
301.000000	106.134000 
301.500000	110.151000 
302.000000	113.551000 
302.500000	117.770000 
303.000000	123.545000 
303.500000	128.391000 
304.000000	133.675000 
304.500000	137.343000 
305.000000	141.656000 
305.500000	146.158000 
306.000000	147.083000 
306.500000	149.272000 
307.000000	153.491000 
307.500000	158.036000 
308.000000	157.632000 
308.500000	158.956000 
309.000000	163.303000 
309.500000	163.632000 
310.000000	162.022000 
310.500000	162.800000 
311.000000	162.580000 
311.500000	160.067000 
312.000000	159.654000 
312.500000	156.263000 
313.000000	154.175000 
313.500000	153.239000 
314.000000	154.485000 
314.500000	150.411000 
315.000000	147.854000 
315.500000	145.649000 
316.000000	142.313000 
316.500000	140.325000 
317.000000	138.799000 
317.500000	137.081000 
318.000000	132.553000 
318.500000	133.636000 
319.000000	133.186000 
319.500000	131.136000 
320.000000	129.387000 
320.500000	129.405000 
321.000000	129.438000 
321.500000	131.038000 
322.000000	128.828000 
322.500000	126.620000 
323.000000	129.748000 
323.500000	128.211000 
324.000000	128.756000 
324.500000	131.216000 
325.000000	135.201000 
325.500000	137.113000 
326.000000	137.872000 
326.500000	137.339000 
327.000000	138.640000 
327.500000	142.157000 
328.000000	145.967000 
328.500000	149.530000 
329.000000	149.071000 
329.500000	150.837000 
330.000000	157.053000 
330.500000	156.468000 
331.000000	160.383000 
331.500000	162.811000 
332.000000	164.780000 
332.500000	163.978000 
333.000000	167.710000 
333.500000	169.449000 
334.000000	171.362000 
334.500000	172.856000 
335.000000	174.701000 
335.500000	178.209000 
336.000000	182.265000 
336.500000	184.115000 
337.000000	179.862000 
337.500000	184.448000 
338.000000	187.567000 
338.500000	190.339000 
339.000000	190.465000 
339.500000	191.331000 
340.000000	195.190000 
340.500000	193.191000 
341.000000	195.410000 
341.500000	197.343000 
342.000000	198.444000 
342.500000	200.419000 
343.000000	200.887000 
343.500000	202.943000 
344.000000	204.027000 
344.500000	206.387000 
345.000000	204.590000 
345.500000	210.656000 
346.000000	211.662000 
346.500000	213.581000 
347.000000	212.318000 
347.500000	213.939000 
348.000000	211.493000 
348.500000	212.603000 
349.000000	216.228000 
349.500000	219.922000 
350.000000	220.040000 
350.500000	220.368000 
351.000000	218.300000 
351.500000	217.652000 
352.000000	220.753000 
352.500000	219.495000 
353.000000	218.254000 
353.500000	218.189000 
354.000000	220.063000 
354.500000	219.579000 
355.000000	221.370000 
355.500000	218.087000 
356.000000	218.509000 
356.500000	218.230000 
357.000000	216.475000 
357.500000	216.449000 
358.000000	214.215000 
358.500000	213.322000 
359.000000	212.113000 
359.500000	215.609000 
360.000000	209.287000 
360.500000	210.820000 
361.000000	210.379000 
361.500000	210.305000 
362.000000	209.214000 
362.500000	204.867000 
363.000000	205.876000 
363.500000	204.429000 
364.000000	205.082000 
364.500000	200.698000 
365.000000	200.601000 
365.500000	201.097000 
366.000000	198.961000 
366.500000	198.428000 
367.000000	197.678000 
367.500000	198.557000 
368.000000	197.102000 
368.500000	191.992000 
369.000000	193.061000 
369.500000	191.163000 
370.000000	190.780000 
370.500000	191.183000 
371.000000	188.607000 
371.500000	189.091000 
372.000000	189.777000 
372.500000	186.836000 
373.000000	186.617000 
373.500000	184.549000 
374.000000	184.039000 
374.500000	182.885000 
375.000000	182.909000 
375.500000	182.937000 
376.000000	178.826000 
376.500000	178.961000 
377.000000	179.283000 
377.500000	179.269000 
378.000000	174.985000 
378.500000	177.258000 
379.000000	173.820000 
379.500000	172.513000 
380.000000	171.489000 
380.500000	169.089000 
381.000000	168.165000 
381.500000	170.816000 
382.000000	166.985000 
382.500000	165.840000 
383.000000	161.969000 
383.500000	161.600000 
384.000000	160.047000 
384.500000	161.434000 
385.000000	159.454000 
385.500000	157.139000 
386.000000	155.816000 
386.500000	153.369000 
387.000000	154.447000 
387.500000	152.440000 
388.000000	150.993000 
388.500000	149.253000 
389.000000	147.378000 
389.500000	146.625000 
390.000000	147.205000 
390.500000	146.968000 
391.000000	142.329000 
391.500000	141.825000 
392.000000	141.066000 
392.500000	137.828000 
393.000000	137.363000 
393.500000	138.263000 
394.000000	135.986000 
394.500000	135.135000 
395.000000	135.462000 
395.500000	132.802000 
396.000000	129.760000 
396.500000	127.932000 
397.000000	127.516000 
397.500000	127.624000 
398.000000	129.381000 
398.500000	128.872000 
399.000000	129.357000 
399.500000	125.606000 
400.000000	124.543000 
400.500000	125.838000 
401.000000	125.203000 
401.500000	123.422000 
402.000000	123.208000 
402.500000	122.925000 
403.000000	121.683000 
403.500000	120.792000 
404.000000	120.691000 
404.500000	118.613000 
405.000000	118.582000 
405.500000	117.512000 
406.000000	116.628000 
406.500000	116.776000 
407.000000	115.728000 
407.500000	114.127000 
408.000000	115.248000 
408.500000	116.033000 
409.000000	115.387000 
409.500000	113.052000 
410.000000	112.909000 
410.500000	112.314000 
411.000000	110.477000 
411.500000	109.068000 
412.000000	109.199000 
412.500000	106.747000 
413.000000	107.985000 
413.500000	106.713000 
414.000000	104.547000 
414.500000	104.638000 
415.000000	105.308000 
415.500000	103.613000 
416.000000	104.585000 
416.500000	103.141000 
417.000000	100.832000 
417.500000	101.433000 
418.000000	99.458000  
418.500000	97.486000  
419.000000	96.962999  
419.500000	98.304000  
420.000000	99.450999  
420.500000	97.423000  
421.000000	96.653000  
421.500000	93.976000  
422.000000	94.337999  
422.500000	93.965999  
423.000000	93.415000  
423.500000	93.310000  
424.000000	93.462000  
424.500000	92.971999  
425.000000	92.390000  
425.500000	90.190000  
426.000000	91.818000  
426.500000	89.935000  
427.000000	88.233000  
427.500000	89.199000  
428.000000	88.552000  
428.500000	90.660000  
429.000000	89.846000  
429.500000	88.325000  
430.000000	87.206000  
430.500000	87.644000  
431.000000	87.733000  
431.500000	87.504000  
432.000000	86.226000  
432.500000	86.011000  
433.000000	84.262000  
433.500000	85.648000  
434.000000	84.742000  
434.500000	84.837999  
435.000000	84.462000  
435.500000	84.158000  
436.000000	84.941999  
436.500000	85.433000  
437.000000	85.250000  
437.500000	84.992000  
438.000000	86.586000  
438.500000	85.223000  
439.000000	84.334999  
439.500000	85.336000  
440.000000	83.642000  
440.500000	82.879000  
441.000000	83.257000  
441.500000	83.767000  
442.000000	84.401000  
442.500000	83.747000  
443.000000	83.543000  
443.500000	85.137000  
444.000000	84.418000  
444.500000	82.736000  
445.000000	82.937000  
445.500000	81.003000  
446.000000	80.374000  
446.500000	82.715000  
447.000000	82.072999  
447.500000	81.980999  
448.000000	81.860000  
448.500000	82.453000  
449.000000	82.069999  
449.500000	79.867000  
450.000000	80.654000  
450.500000	80.749000  
451.000000	79.953999  
451.500000	80.425000  
452.000000	80.696000  
452.500000	80.337000  
453.000000	78.908000  
453.500000	78.775000  
454.000000	76.999000  
454.500000	77.241000  
455.000000	78.364999  
455.500000	76.396000  
456.000000	73.675000  
456.500000	75.510000  
457.000000	74.852999  
457.500000	75.638000  
458.000000	76.167000  
458.500000	76.078999  
459.000000	73.033000  
459.500000	72.932000  
460.000000	71.272000  
460.500000	71.929000  
461.000000	73.227000  
461.500000	74.227999  
462.000000	73.075999  
462.500000	71.009000  
463.000000	71.517000  
463.500000	70.688000  
464.000000	69.950999  
464.500000	71.301000  
465.000000	72.681000  
465.500000	70.434000  
466.000000	70.261000  
466.500000	69.017000  
467.000000	68.625000  
467.500000	70.406000  
468.000000	69.467000  
468.500000	68.983999  
469.000000	69.241000  
469.500000	68.757000  
470.000000	67.709999  
470.500000	67.833000  
471.000000	68.266000  
471.500000	67.950000  
472.000000	67.412000  
472.500000	66.776000  
473.000000	67.157000  
473.500000	68.827000  
474.000000	67.763000  
474.500000	67.876000  
475.000000	67.544000  
475.500000	66.834999  
476.000000	64.339000  
476.500000	66.813999  
477.000000	67.565000  
477.500000	66.105999  
478.000000	66.961000  
478.500000	68.803000  
479.000000	68.470000  
479.500000	67.261000  
480.000000	67.432000  
480.500000	67.880000  
481.000000	67.164000  
481.500000	66.718999  
482.000000	66.870000  
482.500000	66.209999  
483.000000	67.113000  
483.500000	67.036000  
484.000000	67.810000  
484.500000	67.936000  
485.000000	67.805000  
485.500000	68.674000  
486.000000	68.961000  
486.500000	67.641000  
487.000000	68.587999  
487.500000	68.674000  
488.000000	69.444000  
488.500000	68.708000  
489.000000	68.283000  
489.500000	68.215999  
490.000000	67.300000  
490.500000	67.043000  
491.000000	67.096000  
491.500000	68.843000  
492.000000	68.268000  
492.500000	66.805000  
493.000000	68.157000  
493.500000	66.747000  
494.000000	67.367000  
494.500000	67.908000  
495.000000	67.721000  
495.500000	67.750000  
496.000000	66.897000  
496.500000	65.898000  
497.000000	66.770000  
497.500000	66.337999  
498.000000	66.742000  
498.500000	67.276000  
499.000000	65.733999  
499.500000	64.971000  
500.000000	65.654000  
500.500000	65.944999  
501.000000	65.720000  
501.500000	65.923000  
502.000000	65.711000  
502.500000	63.005000  
503.000000	65.682000  
503.500000	65.688000  
504.000000	62.840000  
504.500000	63.313000  
505.000000	63.141000  
505.500000	64.129000  
506.000000	64.333000  
506.500000	62.701000  
507.000000	63.714000  
507.500000	63.129000  
508.000000	62.577000  
508.500000	60.637000  
509.000000	62.436000  
509.500000	62.332000  
510.000000	61.825000  
510.500000	61.629000  
511.000000	60.105000  
511.500000	59.637000  
512.000000	60.652000  
512.500000	59.729000  
513.000000	58.517000  
513.500000	59.875000  
514.000000	59.851000  
514.500000	58.845000  
515.000000	58.658000  
515.500000	56.680000  
516.000000	57.345000  
516.500000	58.406000  
517.000000	59.234000  
517.500000	56.898000  
518.000000	58.164000  
518.500000	58.384000  
519.000000	57.598000  
519.500000	56.846000  
520.000000	56.934000  
520.500000	57.337000  
521.000000	55.791000  
521.500000	56.376000  
522.000000	54.769000  
522.500000	56.580000  
523.000000	55.729000  
523.500000	55.000000  
524.000000	54.649000  
524.500000	54.616000  
525.000000	54.099000  
525.500000	54.198000  
526.000000	52.230000  
526.500000	53.685000  
527.000000	54.041000  
527.500000	53.868000  
528.000000	55.220000  
528.500000	53.005000  
529.000000	52.584000  
529.500000	53.637000  
530.000000	53.173000  
530.500000	55.409000  
531.000000	57.777000  
531.500000	58.429000  
532.000000	60.760000  
532.500000	66.764000  
533.000000	71.123000  
533.500000	75.596999  
534.000000	83.110000  
534.500000	91.715000  
535.000000	99.057000  
535.500000	113.810000 
536.000000	126.968000 
536.500000	140.051000 
537.000000	157.452000 
537.500000	174.800000 
538.000000	195.292000 
538.500000	224.184000 
539.000000	241.280000 
539.500000	275.625000 
540.000000	308.923000 
540.500000	343.442000 
541.000000	367.843000 
541.500000	408.873000 
542.000000	441.212000 
542.500000	491.764000 
543.000000	519.871000 
543.500000	568.878000 
544.000000	656.272000 
544.500000	661.634000 
545.000000	693.476000 
545.500000	742.686000 
546.000000	783.934000 
546.500000	834.223000 
547.000000	876.041000 
547.500000	933.990000 
548.000000	965.725000 
548.500000	999.999000 

