PE FL                   SPECTRUM    ASCII       PEDS        1.60        
  -1
014DFE~1.SP
19/01/24
13:13:54.00
19/01/24
13:13:54.00


548.500000
1









LS45
345.00
10.00
10.00
SCAN
1
16
100
100
0
600
0
1
0
1
7
ON
550 545 
0 0 0
#HDR
-1
-1
#GR
NM
INT 
0.00002384185791015625
0.0
230.000000
0.500000
638
8
999.999000
0.446000
#DATA
230.000000	0.615000   
230.500000	0.446000   
231.000000	0.604000   
231.500000	0.588000   
232.000000	0.749000   
232.500000	0.611000   
233.000000	0.500000   
233.500000	0.577000   
234.000000	0.631000   
234.500000	0.566999   
235.000000	0.611000   
235.500000	0.514000   
236.000000	0.481000   
236.500000	0.670000   
237.000000	0.599000   
237.500000	0.575000   
238.000000	0.734000   
238.500000	0.660000   
239.000000	0.594000   
239.500000	0.555000   
240.000000	0.692999   
240.500000	0.653000   
241.000000	0.602000   
241.500000	0.743000   
242.000000	0.596000   
242.500000	0.593000   
243.000000	0.690999   
243.500000	0.740000   
244.000000	0.659000   
244.500000	0.633000   
245.000000	0.655000   
245.500000	0.579000   
246.000000	0.630000   
246.500000	0.754000   
247.000000	0.789000   
247.500000	0.701000   
248.000000	0.703000   
248.500000	0.526000   
249.000000	0.562000   
249.500000	0.770000   
250.000000	0.879000   
250.500000	0.789000   
251.000000	0.698000   
251.500000	0.677000   
252.000000	0.691999   
252.500000	0.704000   
253.000000	0.657000   
253.500000	0.812999   
254.000000	0.964000   
254.500000	0.864000   
255.000000	0.754000   
255.500000	0.768000   
256.000000	0.791000   
256.500000	0.835000   
257.000000	0.745000   
257.500000	0.673000   
258.000000	0.908000   
258.500000	0.929000   
259.000000	0.773000   
259.500000	0.686000   
260.000000	0.861000   
260.500000	0.747000   
261.000000	0.817999   
261.500000	0.891000   
262.000000	0.997000   
262.500000	0.851000   
263.000000	0.890000   
263.500000	0.857000   
264.000000	0.798000   
264.500000	0.800000   
265.000000	0.894000   
265.500000	0.895000   
266.000000	0.917000   
266.500000	0.879000   
267.000000	0.884000   
267.500000	1.123000   
268.000000	1.086000   
268.500000	1.052000   
269.000000	1.001000   
269.500000	1.020000   
270.000000	1.028000   
270.500000	1.172000   
271.000000	1.070000   
271.500000	0.999000   
272.000000	1.070000   
272.500000	1.071000   
273.000000	0.979000   
273.500000	0.829000   
274.000000	0.967000   
274.500000	1.078000   
275.000000	1.097000   
275.500000	0.952000   
276.000000	1.147000   
276.500000	1.186000   
277.000000	1.165000   
277.500000	1.093000   
278.000000	1.023000   
278.500000	1.171000   
279.000000	1.230000   
279.500000	1.195000   
280.000000	1.255000   
280.500000	1.314000   
281.000000	1.294000   
281.500000	1.375000   
282.000000	1.262000   
282.500000	1.316000   
283.000000	1.124000   
283.500000	1.001000   
284.000000	1.215000   
284.500000	1.448000   
285.000000	1.414000   
285.500000	1.303000   
286.000000	1.415000   
286.500000	1.285000   
287.000000	1.478000   
287.500000	1.462000   
288.000000	1.412000   
288.500000	1.422000   
289.000000	1.403000   
289.500000	1.409000   
290.000000	1.439000   
290.500000	1.584000   
291.000000	1.546000   
291.500000	1.566000   
292.000000	1.651000   
292.500000	1.659000   
293.000000	1.589000   
293.500000	1.704000   
294.000000	1.638000   
294.500000	1.882000   
295.000000	1.797000   
295.500000	1.988000   
296.000000	1.961000   
296.500000	2.122000   
297.000000	2.064000   
297.500000	1.937000   
298.000000	2.061000   
298.500000	2.123000   
299.000000	2.403000   
299.500000	2.335000   
300.000000	2.353000   
300.500000	2.449000   
301.000000	2.325000   
301.500000	2.447000   
302.000000	2.438000   
302.500000	2.906000   
303.000000	2.881000   
303.500000	3.000000   
304.000000	3.174000   
304.500000	2.982000   
305.000000	2.931000   
305.500000	3.155000   
306.000000	3.039000   
306.500000	3.335000   
307.000000	3.420000   
307.500000	3.705000   
308.000000	3.941000   
308.500000	3.842000   
309.000000	3.950000   
309.500000	3.912000   
310.000000	4.214000   
310.500000	4.602000   
311.000000	4.631000   
311.500000	4.793000   
312.000000	5.103000   
312.500000	4.889000   
313.000000	5.127000   
313.500000	5.185000   
314.000000	5.620000   
314.500000	6.088000   
315.000000	6.135000   
315.500000	5.826000   
316.000000	6.087000   
316.500000	6.260000   
317.000000	6.872000   
317.500000	6.693000   
318.000000	7.236000   
318.500000	7.430000   
319.000000	7.915000   
319.500000	8.237000   
320.000000	8.393000   
320.500000	8.423000   
321.000000	9.690000   
321.500000	10.844000  
322.000000	11.903000  
322.500000	13.783000  
323.000000	16.750000  
323.500000	20.115000  
324.000000	26.088000  
324.500000	34.710000  
325.000000	46.328000  
325.500000	56.595000  
326.000000	73.022000  
326.500000	88.912000  
327.000000	114.328000 
327.500000	138.694000 
328.000000	171.463000 
328.500000	208.506000 
329.000000	261.782000 
329.500000	303.323000 
330.000000	358.911000 
330.500000	419.100000 
331.000000	538.355000 
331.500000	606.631000 
332.000000	681.973000 
332.500000	770.269000 
333.000000	853.843000 
333.500000	866.030999 
334.000000	999.999000 
334.500000	999.999000 
335.000000	999.999000 
335.500000	999.999000 
336.000000	999.999000 
336.500000	999.999000 
337.000000	999.999000 
337.500000	999.999000 
338.000000	999.999000 
338.500000	999.999000 
339.000000	999.999000 
339.500000	999.999000 
340.000000	999.999000 
340.500000	999.999000 
341.000000	999.999000 
341.500000	999.999000 
342.000000	999.999000 
342.500000	999.999000 
343.000000	999.999000 
343.500000	999.999000 
344.000000	999.999000 
344.500000	999.999000 
345.000000	999.999000 
345.500000	999.999000 
346.000000	999.999000 
346.500000	999.999000 
347.000000	999.999000 
347.500000	999.999000 
348.000000	999.999000 
348.500000	989.466000 
349.000000	918.097000 
349.500000	825.265000 
350.000000	755.759000 
350.500000	648.715000 
351.000000	637.056000 
351.500000	509.023000 
352.000000	497.806000 
352.500000	380.935000 
353.000000	371.442000 
353.500000	323.047000 
354.000000	271.657000 
354.500000	224.909000 
355.000000	184.937000 
355.500000	148.854000 
356.000000	123.813000 
356.500000	101.691000 
357.000000	84.761000  
357.500000	69.595000  
358.000000	58.937000  
358.500000	47.150000  
359.000000	41.409000  
359.500000	34.519000  
360.000000	31.512000  
360.500000	28.032000  
361.000000	27.201000  
361.500000	24.763000  
362.000000	25.327000  
362.500000	24.827000  
363.000000	24.076000  
363.500000	24.747000  
364.000000	24.474000  
364.500000	25.190000  
365.000000	26.116000  
365.500000	26.598000  
366.000000	26.310000  
366.500000	26.953000  
367.000000	27.910000  
367.500000	28.362000  
368.000000	28.726000  
368.500000	29.628000  
369.000000	31.276000  
369.500000	32.782000  
370.000000	32.951000  
370.500000	35.210000  
371.000000	36.708000  
371.500000	38.178000  
372.000000	41.067000  
372.500000	41.592000  
373.000000	43.197000  
373.500000	45.840000  
374.000000	48.241000  
374.500000	50.915000  
375.000000	53.227000  
375.500000	55.766000  
376.000000	58.618000  
376.500000	62.212000  
377.000000	64.250000  
377.500000	67.775000  
378.000000	69.282000  
378.500000	73.513000  
379.000000	77.003000  
379.500000	79.821000  
380.000000	83.083000  
380.500000	84.519000  
381.000000	89.400000  
381.500000	91.605000  
382.000000	94.813000  
382.500000	95.273000  
383.000000	96.659000  
383.500000	100.794000 
384.000000	100.901000 
384.500000	103.408000 
385.000000	104.033000 
385.500000	105.295000 
386.000000	108.562000 
386.500000	107.996000 
387.000000	107.978000 
387.500000	108.218000 
388.000000	108.506000 
388.500000	107.855000 
389.000000	106.572000 
389.500000	106.667000 
390.000000	106.411000 
390.500000	104.652000 
391.000000	103.097000 
391.500000	102.153000 
392.000000	100.767000 
392.500000	99.956000  
393.000000	97.012000  
393.500000	96.092000  
394.000000	93.736000  
394.500000	91.540000  
395.000000	90.601000  
395.500000	88.605999  
396.000000	87.629000  
396.500000	84.831999  
397.000000	83.629000  
397.500000	82.896000  
398.000000	81.181000  
398.500000	79.349000  
399.000000	76.931000  
399.500000	76.611000  
400.000000	75.502000  
400.500000	74.137000  
401.000000	74.328999  
401.500000	73.657000  
402.000000	72.641000  
402.500000	72.251000  
403.000000	72.358000  
403.500000	70.974000  
404.000000	72.267000  
404.500000	72.072999  
405.000000	71.837000  
405.500000	71.744000  
406.000000	72.852000  
406.500000	73.559000  
407.000000	70.592000  
407.500000	70.220000  
408.000000	72.680000  
408.500000	73.706000  
409.000000	74.209000  
409.500000	73.233999  
410.000000	74.816999  
410.500000	75.256000  
411.000000	76.233999  
411.500000	75.155000  
412.000000	74.880000  
412.500000	74.369000  
413.000000	76.676000  
413.500000	77.032000  
414.000000	76.352999  
414.500000	77.744000  
415.000000	77.054000  
415.500000	78.093000  
416.000000	78.053000  
416.500000	78.635000  
417.000000	78.415000  
417.500000	78.349999  
418.000000	79.533000  
418.500000	79.605000  
419.000000	78.136000  
419.500000	78.209000  
420.000000	78.905000  
420.500000	80.381000  
421.000000	79.505000  
421.500000	78.884000  
422.000000	80.657000  
422.500000	79.264000  
423.000000	79.965999  
423.500000	80.528000  
424.000000	80.687000  
424.500000	80.977000  
425.000000	81.396000  
425.500000	81.011000  
426.000000	80.680000  
426.500000	80.903000  
427.000000	80.377000  
427.500000	81.934000  
428.000000	82.191000  
428.500000	81.119000  
429.000000	80.858999  
429.500000	80.798000  
430.000000	81.985000  
430.500000	81.932000  
431.000000	82.938999  
431.500000	80.116000  
432.000000	81.430000  
432.500000	82.211000  
433.000000	82.635000  
433.500000	82.126000  
434.000000	82.953000  
434.500000	82.271000  
435.000000	80.661000  
435.500000	81.665000  
436.000000	81.549000  
436.500000	82.175000  
437.000000	83.371000  
437.500000	82.696000  
438.000000	81.200999  
438.500000	81.518000  
439.000000	82.915000  
439.500000	82.263000  
440.000000	82.266000  
440.500000	84.089000  
441.000000	82.762000  
441.500000	81.672000  
442.000000	81.983000  
442.500000	82.979000  
443.000000	80.977000  
443.500000	82.188999  
444.000000	79.899000  
444.500000	79.964000  
445.000000	80.471000  
445.500000	81.821000  
446.000000	81.114000  
446.500000	79.531000  
447.000000	78.465999  
447.500000	78.524000  
448.000000	78.424000  
448.500000	78.190000  
449.000000	77.980999  
449.500000	76.548000  
450.000000	76.436000  
450.500000	76.412000  
451.000000	75.395000  
451.500000	75.836000  
452.000000	75.324000  
452.500000	74.456000  
453.000000	73.715000  
453.500000	73.232000  
454.000000	73.242000  
454.500000	72.605000  
455.000000	72.980999  
455.500000	71.724000  
456.000000	70.601000  
456.500000	70.165000  
457.000000	69.476000  
457.500000	70.135000  
458.000000	69.296000  
458.500000	68.410000  
459.000000	67.953999  
459.500000	68.259000  
460.000000	67.447999  
460.500000	65.637000  
461.000000	64.154000  
461.500000	65.684000  
462.000000	65.531000  
462.500000	64.128000  
463.000000	63.627000  
463.500000	63.466000  
464.000000	63.408000  
464.500000	62.938000  
465.000000	62.316000  
465.500000	62.148000  
466.000000	60.742000  
466.500000	61.168000  
467.000000	60.759000  
467.500000	61.250000  
468.000000	58.655000  
468.500000	58.618000  
469.000000	58.282000  
469.500000	57.200000  
470.000000	58.016000  
470.500000	55.862000  
471.000000	56.677000  
471.500000	56.837000  
472.000000	56.084000  
472.500000	56.896000  
473.000000	54.827000  
473.500000	54.070000  
474.000000	55.404000  
474.500000	54.088000  
475.000000	54.382000  
475.500000	54.829000  
476.000000	54.429000  
476.500000	52.921000  
477.000000	52.846000  
477.500000	51.221000  
478.000000	51.025000  
478.500000	51.333000  
479.000000	50.984000  
479.500000	50.568000  
480.000000	50.931000  
480.500000	51.848000  
481.000000	50.039000  
481.500000	48.112000  
482.000000	47.105000  
482.500000	47.324000  
483.000000	47.598000  
483.500000	47.550000  
484.000000	47.230000  
484.500000	48.291000  
485.000000	46.294000  
485.500000	45.821000  
486.000000	45.770000  
486.500000	46.221000  
487.000000	44.495000  
487.500000	45.073000  
488.000000	44.889000  
488.500000	43.479000  
489.000000	44.012000  
489.500000	43.459000  
490.000000	43.418000  
490.500000	42.102000  
491.000000	42.470000  
491.500000	41.884000  
492.000000	40.701000  
492.500000	40.854000  
493.000000	41.053000  
493.500000	40.148000  
494.000000	40.585000  
494.500000	40.322000  
495.000000	40.054000  
495.500000	39.138000  
496.000000	37.674000  
496.500000	37.871000  
497.000000	38.089000  
497.500000	38.259000  
498.000000	37.959000  
498.500000	36.707000  
499.000000	37.125000  
499.500000	36.993000  
500.000000	35.698000  
500.500000	34.938000  
501.000000	35.419000  
501.500000	34.635000  
502.000000	36.077000  
502.500000	35.624000  
503.000000	33.993000  
503.500000	33.745000  
504.000000	33.503000  
504.500000	33.281000  
505.000000	32.109000  
505.500000	33.185000  
506.000000	32.683000  
506.500000	31.762000  
507.000000	32.898000  
507.500000	32.235000  
508.000000	31.226000  
508.500000	30.831000  
509.000000	31.281000  
509.500000	30.958000  
510.000000	29.773000  
510.500000	29.606000  
511.000000	29.414000  
511.500000	29.001000  
512.000000	28.801000  
512.500000	28.846000  
513.000000	28.236000  
513.500000	28.900000  
514.000000	28.914000  
514.500000	27.641000  
515.000000	27.614000  
515.500000	27.231000  
516.000000	26.233000  
516.500000	26.827000  
517.000000	26.812000  
517.500000	25.661000  
518.000000	25.113000  
518.500000	26.190000  
519.000000	26.000000  
519.500000	24.795000  
520.000000	24.031000  
520.500000	24.259000  
521.000000	24.247000  
521.500000	24.135000  
522.000000	23.725000  
522.500000	23.254000  
523.000000	22.836000  
523.500000	22.892000  
524.000000	22.573000  
524.500000	22.383000  
525.000000	22.051000  
525.500000	21.351000  
526.000000	21.738000  
526.500000	20.992000  
527.000000	20.692000  
527.500000	21.212000  
528.000000	20.780000  
528.500000	20.454000  
529.000000	20.450000  
529.500000	19.314000  
530.000000	19.585000  
530.500000	19.544000  
531.000000	18.996000  
531.500000	18.793000  
532.000000	19.322000  
532.500000	19.028000  
533.000000	17.976000  
533.500000	18.075000  
534.000000	18.580000  
534.500000	16.899000  
535.000000	16.524000  
535.500000	17.298000  
536.000000	17.212000  
536.500000	16.619000  
537.000000	15.572000  
537.500000	16.496000  
538.000000	16.067000  
538.500000	15.767000  
539.000000	14.845000  
539.500000	14.975000  
540.000000	14.829000  
540.500000	14.948000  
541.000000	15.095000  
541.500000	13.806000  
542.000000	13.861000  
542.500000	13.989000  
543.000000	14.164000  
543.500000	13.711000  
544.000000	13.633000  
544.500000	13.082000  
545.000000	13.374000  
545.500000	13.020000  
546.000000	12.376000  
546.500000	12.187000  
547.000000	12.115000  
547.500000	12.459000  
548.000000	12.863000  
548.500000	11.564000  

