PE FL                   SPECTRUM    ASCII       PEDS        1.60        
  -1
0124SC~1.SP
19/01/24
13:35:47.00
19/01/24
13:35:47.00


548.500000
1









LS45
490.00
10.00
10.00
SCAN
1
16
100
100
0
600
0
1
0
1
7
ON
550 545 
0 0 0
#HDR
-1
-1
#GR
NM
INT 
0.00002384185791015625
0.0
230.000000
0.500000
638
8
571.144000
0.085999
#DATA
230.000000	0.116000   
230.500000	0.133000   
231.000000	0.134000   
231.500000	0.152000   
232.000000	0.177000   
232.500000	0.159000   
233.000000	0.228000   
233.500000	0.234000   
234.000000	0.321000   
234.500000	0.325000   
235.000000	0.339000   
235.500000	0.352000   
236.000000	0.488000   
236.500000	0.574000   
237.000000	0.562999   
237.500000	0.595000   
238.000000	0.579000   
238.500000	0.685000   
239.000000	0.712000   
239.500000	0.799000   
240.000000	0.858000   
240.500000	0.890000   
241.000000	0.907000   
241.500000	0.858000   
242.000000	1.047000   
242.500000	0.963000   
243.000000	1.034000   
243.500000	0.989000   
244.000000	1.027000   
244.500000	1.059000   
245.000000	0.908000   
245.500000	1.105000   
246.000000	0.995000   
246.500000	0.896000   
247.000000	0.886000   
247.500000	0.840000   
248.000000	0.742000   
248.500000	0.772000   
249.000000	0.684000   
249.500000	0.715000   
250.000000	0.626000   
250.500000	0.552000   
251.000000	0.569000   
251.500000	0.450000   
252.000000	0.506000   
252.500000	0.461000   
253.000000	0.392000   
253.500000	0.350000   
254.000000	0.332000   
254.500000	0.289000   
255.000000	0.293000   
255.500000	0.309000   
256.000000	0.321000   
256.500000	0.293000   
257.000000	0.308000   
257.500000	0.330000   
258.000000	0.353000   
258.500000	0.440000   
259.000000	0.340000   
259.500000	0.395000   
260.000000	0.385000   
260.500000	0.425000   
261.000000	0.455000   
261.500000	0.532000   
262.000000	0.538000   
262.500000	0.600000   
263.000000	0.623000   
263.500000	0.600000   
264.000000	0.631000   
264.500000	0.542000   
265.000000	0.550000   
265.500000	0.649000   
266.000000	0.619000   
266.500000	0.653000   
267.000000	0.656000   
267.500000	0.639000   
268.000000	0.599000   
268.500000	0.552000   
269.000000	0.487000   
269.500000	0.563999   
270.000000	0.518000   
270.500000	0.436000   
271.000000	0.388000   
271.500000	0.379000   
272.000000	0.382000   
272.500000	0.319000   
273.000000	0.372000   
273.500000	0.283000   
274.000000	0.330000   
274.500000	0.271000   
275.000000	0.318000   
275.500000	0.216000   
276.000000	0.180000   
276.500000	0.186000   
277.000000	0.134000   
277.500000	0.208000   
278.000000	0.122000   
278.500000	0.110000   
279.000000	0.178000   
279.500000	0.124000   
280.000000	0.148000   
280.500000	0.136000   
281.000000	0.101000   
281.500000	0.130000   
282.000000	0.123000   
282.500000	0.130000   
283.000000	0.093000   
283.500000	0.101000   
284.000000	0.130000   
284.500000	0.156000   
285.000000	0.121000   
285.500000	0.091000   
286.000000	0.085999   
286.500000	0.124000   
287.000000	0.126000   
287.500000	0.122000   
288.000000	0.130000   
288.500000	0.131000   
289.000000	0.190000   
289.500000	0.127000   
290.000000	0.142000   
290.500000	0.172000   
291.000000	0.154000   
291.500000	0.144000   
292.000000	0.152000   
292.500000	0.184000   
293.000000	0.200000   
293.500000	0.234000   
294.000000	0.204000   
294.500000	0.145000   
295.000000	0.253000   
295.500000	0.206000   
296.000000	0.199000   
296.500000	0.172000   
297.000000	0.167000   
297.500000	0.187000   
298.000000	0.215000   
298.500000	0.170000   
299.000000	0.213000   
299.500000	0.208000   
300.000000	0.224000   
300.500000	0.218000   
301.000000	0.223000   
301.500000	0.197000   
302.000000	0.225000   
302.500000	0.233000   
303.000000	0.206000   
303.500000	0.194000   
304.000000	0.231000   
304.500000	0.272000   
305.000000	0.261000   
305.500000	0.287000   
306.000000	0.275000   
306.500000	0.214000   
307.000000	0.223000   
307.500000	0.274000   
308.000000	0.293000   
308.500000	0.264000   
309.000000	0.297000   
309.500000	0.293000   
310.000000	0.247000   
310.500000	0.234000   
311.000000	0.254000   
311.500000	0.305000   
312.000000	0.358000   
312.500000	0.325000   
313.000000	0.323000   
313.500000	0.368000   
314.000000	0.351000   
314.500000	0.424000   
315.000000	0.331000   
315.500000	0.456000   
316.000000	0.403000   
316.500000	0.342000   
317.000000	0.370000   
317.500000	0.377000   
318.000000	0.394000   
318.500000	0.522000   
319.000000	0.473000   
319.500000	0.375000   
320.000000	0.425000   
320.500000	0.382000   
321.000000	0.420000   
321.500000	0.448000   
322.000000	0.425000   
322.500000	0.492000   
323.000000	0.544000   
323.500000	0.562999   
324.000000	0.514000   
324.500000	0.533000   
325.000000	0.589000   
325.500000	0.553000   
326.000000	0.654000   
326.500000	0.555000   
327.000000	0.589000   
327.500000	0.587000   
328.000000	0.603000   
328.500000	0.768000   
329.000000	0.778000   
329.500000	0.695000   
330.000000	0.652000   
330.500000	0.775000   
331.000000	0.764000   
331.500000	0.704000   
332.000000	0.871000   
332.500000	0.843000   
333.000000	0.797000   
333.500000	0.797000   
334.000000	0.882000   
334.500000	0.935000   
335.000000	0.867000   
335.500000	0.851000   
336.000000	0.915000   
336.500000	0.997000   
337.000000	1.039000   
337.500000	0.882000   
338.000000	1.020000   
338.500000	1.132000   
339.000000	1.032000   
339.500000	1.140000   
340.000000	1.101000   
340.500000	1.249000   
341.000000	1.131000   
341.500000	1.101000   
342.000000	1.145000   
342.500000	1.126000   
343.000000	1.101000   
343.500000	1.098000   
344.000000	1.197000   
344.500000	1.144000   
345.000000	1.245000   
345.500000	1.178000   
346.000000	1.189000   
346.500000	1.160000   
347.000000	1.118000   
347.500000	1.359000   
348.000000	1.376000   
348.500000	1.447000   
349.000000	1.468000   
349.500000	1.349000   
350.000000	1.389000   
350.500000	1.285000   
351.000000	1.358000   
351.500000	1.443000   
352.000000	1.503000   
352.500000	1.190000   
353.000000	1.395000   
353.500000	1.433000   
354.000000	1.349000   
354.500000	1.366000   
355.000000	1.511000   
355.500000	1.494000   
356.000000	1.450000   
356.500000	1.433000   
357.000000	1.380000   
357.500000	1.493000   
358.000000	1.516000   
358.500000	1.415000   
359.000000	1.590000   
359.500000	1.591000   
360.000000	1.512000   
360.500000	1.341000   
361.000000	1.478000   
361.500000	1.392000   
362.000000	1.529000   
362.500000	1.539000   
363.000000	1.457000   
363.500000	1.461000   
364.000000	1.455000   
364.500000	1.548000   
365.000000	1.311000   
365.500000	1.366000   
366.000000	1.526000   
366.500000	1.328000   
367.000000	1.461000   
367.500000	1.472000   
368.000000	1.406000   
368.500000	1.488000   
369.000000	1.369000   
369.500000	1.418000   
370.000000	1.573000   
370.500000	1.566000   
371.000000	1.463000   
371.500000	1.442000   
372.000000	1.511000   
372.500000	1.325000   
373.000000	1.442000   
373.500000	1.587000   
374.000000	1.404000   
374.500000	1.443000   
375.000000	1.428000   
375.500000	1.464000   
376.000000	1.563000   
376.500000	1.449000   
377.000000	1.340000   
377.500000	1.533000   
378.000000	1.513000   
378.500000	1.432000   
379.000000	1.484000   
379.500000	1.428000   
380.000000	1.474000   
380.500000	1.549000   
381.000000	1.339000   
381.500000	1.349000   
382.000000	1.477000   
382.500000	1.484000   
383.000000	1.457000   
383.500000	1.470000   
384.000000	1.431000   
384.500000	1.410000   
385.000000	1.501000   
385.500000	1.479000   
386.000000	1.549000   
386.500000	1.408000   
387.000000	1.409000   
387.500000	1.506000   
388.000000	1.472000   
388.500000	1.352000   
389.000000	1.368000   
389.500000	1.370000   
390.000000	1.374000   
390.500000	1.405000   
391.000000	1.479000   
391.500000	1.526000   
392.000000	1.530000   
392.500000	1.429000   
393.000000	1.487000   
393.500000	1.379000   
394.000000	1.482000   
394.500000	1.331000   
395.000000	1.441000   
395.500000	1.331000   
396.000000	1.329000   
396.500000	1.422000   
397.000000	1.491000   
397.500000	1.417000   
398.000000	1.410000   
398.500000	1.323000   
399.000000	1.302000   
399.500000	1.377000   
400.000000	1.478000   
400.500000	1.384000   
401.000000	1.362000   
401.500000	1.284000   
402.000000	1.351000   
402.500000	1.516000   
403.000000	1.526000   
403.500000	1.361000   
404.000000	1.351000   
404.500000	1.415000   
405.000000	1.508000   
405.500000	1.407000   
406.000000	1.433000   
406.500000	1.443000   
407.000000	1.394000   
407.500000	1.469000   
408.000000	1.463000   
408.500000	1.480000   
409.000000	1.502000   
409.500000	1.557000   
410.000000	1.398000   
410.500000	1.490000   
411.000000	1.408000   
411.500000	1.401000   
412.000000	1.439000   
412.500000	1.493000   
413.000000	1.487000   
413.500000	1.367000   
414.000000	1.522000   
414.500000	1.657000   
415.000000	1.394000   
415.500000	1.594000   
416.000000	1.611000   
416.500000	1.447000   
417.000000	1.483000   
417.500000	1.461000   
418.000000	1.528000   
418.500000	1.470000   
419.000000	1.474000   
419.500000	1.362000   
420.000000	1.480000   
420.500000	1.643000   
421.000000	1.543000   
421.500000	1.523000   
422.000000	1.441000   
422.500000	1.543000   
423.000000	1.445000   
423.500000	1.589000   
424.000000	1.624000   
424.500000	1.567000   
425.000000	1.560000   
425.500000	1.537000   
426.000000	1.657000   
426.500000	1.538000   
427.000000	1.635000   
427.500000	1.539000   
428.000000	1.631000   
428.500000	1.545000   
429.000000	1.571000   
429.500000	1.701000   
430.000000	1.544000   
430.500000	1.714000   
431.000000	1.611000   
431.500000	1.598000   
432.000000	1.634000   
432.500000	1.666000   
433.000000	1.644000   
433.500000	1.690000   
434.000000	1.725000   
434.500000	1.716000   
435.000000	1.932000   
435.500000	1.778000   
436.000000	1.736000   
436.500000	1.730000   
437.000000	1.784000   
437.500000	1.930000   
438.000000	1.686000   
438.500000	1.753000   
439.000000	1.748000   
439.500000	1.752000   
440.000000	1.801000   
440.500000	1.878000   
441.000000	1.828000   
441.500000	1.893000   
442.000000	1.856000   
442.500000	2.098000   
443.000000	2.108000   
443.500000	1.990000   
444.000000	2.118000   
444.500000	2.127000   
445.000000	2.078000   
445.500000	2.094000   
446.000000	1.996000   
446.500000	2.011000   
447.000000	2.105000   
447.500000	2.113000   
448.000000	2.103000   
448.500000	2.083000   
449.000000	2.324000   
449.500000	2.233000   
450.000000	2.141000   
450.500000	2.225000   
451.000000	2.106000   
451.500000	2.264000   
452.000000	2.261000   
452.500000	2.292000   
453.000000	2.157000   
453.500000	2.271000   
454.000000	2.364000   
454.500000	2.320000   
455.000000	2.378000   
455.500000	2.468000   
456.000000	2.232000   
456.500000	2.267000   
457.000000	2.355000   
457.500000	2.373000   
458.000000	2.470000   
458.500000	2.537000   
459.000000	2.635000   
459.500000	2.544000   
460.000000	2.527000   
460.500000	2.443000   
461.000000	2.327000   
461.500000	2.494000   
462.000000	2.666000   
462.500000	2.701000   
463.000000	2.554000   
463.500000	2.676000   
464.000000	2.856000   
464.500000	2.962000   
465.000000	2.983000   
465.500000	3.015000   
466.000000	3.258000   
466.500000	3.604000   
467.000000	4.286000   
467.500000	5.043000   
468.000000	6.446000   
468.500000	7.651000   
469.000000	9.656000   
469.500000	11.634000  
470.000000	16.562000  
470.500000	21.549000  
471.000000	30.186000  
471.500000	37.489000  
472.000000	47.724000  
472.500000	58.734000  
473.000000	76.997000  
473.500000	88.999000  
474.000000	105.730000 
474.500000	124.149000 
475.000000	146.097000 
475.500000	167.569000 
476.000000	198.163000 
476.500000	217.328000 
477.000000	243.779000 
477.500000	271.713000 
478.000000	299.697000 
478.500000	328.744000 
479.000000	354.978000 
479.500000	383.662000 
480.000000	409.780000 
480.500000	437.922000 
481.000000	466.343000 
481.500000	485.397000 
482.000000	501.626000 
482.500000	522.737000 
483.000000	533.574000 
483.500000	546.636999 
484.000000	553.585000 
484.500000	559.350000 
485.000000	568.179000 
485.500000	567.556000 
486.000000	571.144000 
486.500000	568.204000 
487.000000	562.749000 
487.500000	551.992000 
488.000000	547.312000 
488.500000	531.716000 
489.000000	515.123000 
489.500000	496.828000 
490.000000	481.494000 
490.500000	456.585000 
491.000000	435.734000 
491.500000	404.406000 
492.000000	380.846000 
492.500000	350.112000 
493.000000	324.151000 
493.500000	289.011000 
494.000000	263.444000 
494.500000	230.096000 
495.000000	210.599000 
495.500000	182.820000 
496.000000	161.666000 
496.500000	140.323000 
497.000000	121.081000 
497.500000	102.224000 
498.000000	86.780000  
498.500000	73.522000  
499.000000	61.137000  
499.500000	49.028000  
500.000000	40.698000  
500.500000	32.997000  
501.000000	27.317000  
501.500000	21.690000  
502.000000	16.618000  
502.500000	13.333000  
503.000000	10.482000  
503.500000	8.922000   
504.000000	7.263000   
504.500000	5.895000   
505.000000	5.299000   
505.500000	4.825000   
506.000000	4.206000   
506.500000	3.788000   
507.000000	3.701000   
507.500000	3.439000   
508.000000	3.423000   
508.500000	3.412000   
509.000000	3.162000   
509.500000	3.241000   
510.000000	3.143000   
510.500000	3.005000   
511.000000	3.253000   
511.500000	3.224000   
512.000000	3.153000   
512.500000	3.517000   
513.000000	3.250000   
513.500000	2.976000   
514.000000	3.195000   
514.500000	3.043000   
515.000000	3.088000   
515.500000	2.874000   
516.000000	2.957000   
516.500000	3.059000   
517.000000	3.049000   
517.500000	3.132000   
518.000000	3.068000   
518.500000	3.039000   
519.000000	3.146000   
519.500000	3.168000   
520.000000	3.089000   
520.500000	3.122000   
521.000000	3.221000   
521.500000	3.462000   
522.000000	3.402000   
522.500000	3.538000   
523.000000	3.427000   
523.500000	3.555000   
524.000000	3.504000   
524.500000	3.659000   
525.000000	3.905000   
525.500000	3.676000   
526.000000	3.634000   
526.500000	3.673000   
527.000000	3.779000   
527.500000	3.689000   
528.000000	3.813000   
528.500000	3.659000   
529.000000	3.620000   
529.500000	3.844000   
530.000000	3.799000   
530.500000	4.036000   
531.000000	3.708000   
531.500000	3.732000   
532.000000	3.897000   
532.500000	3.665000   
533.000000	3.685000   
533.500000	3.723000   
534.000000	3.563000   
534.500000	3.469000   
535.000000	3.254000   
535.500000	3.463000   
536.000000	3.639000   
536.500000	3.320000   
537.000000	3.175000   
537.500000	3.135000   
538.000000	2.924000   
538.500000	2.821000   
539.000000	2.741000   
539.500000	2.596000   
540.000000	2.450000   
540.500000	2.604000   
541.000000	2.460000   
541.500000	2.415000   
542.000000	2.323000   
542.500000	2.090000   
543.000000	2.191000   
543.500000	2.002000   
544.000000	2.049000   
544.500000	1.949000   
545.000000	1.922000   
545.500000	1.850000   
546.000000	1.877000   
546.500000	1.918000   
547.000000	1.691000   
547.500000	1.771000   
548.000000	1.702000   
548.500000	1.596000   

