PE FL                   SPECTRUM    ASCII       PEDS        1.60        
  -1
015DF2~1.SP
19/01/24
13:17:41.00
19/01/24
13:17:41.00


548.500000
1









LS45
370.00
10.00
10.00
SCAN
1
16
100
100
0
600
0
1
0
1
7
ON
550 545 
0 0 0
#HDR
-1
-1
#GR
NM
INT 
0.00002384185791015625
0.0
230.000000
0.500000
638
8
999.999000
0.294000
#DATA
230.000000	0.447000   
230.500000	0.409000   
231.000000	0.366000   
231.500000	0.527000   
232.000000	0.456000   
232.500000	0.427000   
233.000000	0.457000   
233.500000	0.529000   
234.000000	0.421000   
234.500000	0.480000   
235.000000	0.438000   
235.500000	0.467000   
236.000000	0.402000   
236.500000	0.478000   
237.000000	0.384000   
237.500000	0.487000   
238.000000	0.392000   
238.500000	0.429000   
239.000000	0.498000   
239.500000	0.496000   
240.000000	0.437000   
240.500000	0.399000   
241.000000	0.436000   
241.500000	0.335000   
242.000000	0.294000   
242.500000	0.299000   
243.000000	0.463000   
243.500000	0.522000   
244.000000	0.429000   
244.500000	0.437000   
245.000000	0.449000   
245.500000	0.424000   
246.000000	0.538000   
246.500000	0.395000   
247.000000	0.460000   
247.500000	0.472000   
248.000000	0.385000   
248.500000	0.474000   
249.000000	0.480000   
249.500000	0.495000   
250.000000	0.570000   
250.500000	0.517000   
251.000000	0.466000   
251.500000	0.491000   
252.000000	0.547000   
252.500000	0.376000   
253.000000	0.598000   
253.500000	0.627000   
254.000000	0.630000   
254.500000	0.537000   
255.000000	0.454000   
255.500000	0.518000   
256.000000	0.547000   
256.500000	0.578000   
257.000000	0.466000   
257.500000	0.513000   
258.000000	0.569000   
258.500000	0.582000   
259.000000	0.610000   
259.500000	0.605000   
260.000000	0.394000   
260.500000	0.529000   
261.000000	0.547000   
261.500000	0.475000   
262.000000	0.571000   
262.500000	0.666000   
263.000000	0.536000   
263.500000	0.512000   
264.000000	0.511000   
264.500000	0.620000   
265.000000	0.642000   
265.500000	0.668000   
266.000000	0.562000   
266.500000	0.578000   
267.000000	0.643000   
267.500000	0.583000   
268.000000	0.453000   
268.500000	0.513000   
269.000000	0.584000   
269.500000	0.667000   
270.000000	0.562999   
270.500000	0.597000   
271.000000	0.523000   
271.500000	0.672000   
272.000000	0.796000   
272.500000	0.740000   
273.000000	0.597000   
273.500000	0.604000   
274.000000	0.458000   
274.500000	0.621000   
275.000000	0.603000   
275.500000	0.567999   
276.000000	0.682000   
276.500000	0.673000   
277.000000	0.659000   
277.500000	0.640000   
278.000000	0.724000   
278.500000	0.577000   
279.000000	0.744000   
279.500000	0.729000   
280.000000	0.685000   
280.500000	0.736000   
281.000000	0.737000   
281.500000	0.824000   
282.000000	0.748000   
282.500000	0.678000   
283.000000	0.805000   
283.500000	0.788000   
284.000000	0.725000   
284.500000	0.728000   
285.000000	0.828000   
285.500000	0.899000   
286.000000	0.789000   
286.500000	0.922000   
287.000000	0.868000   
287.500000	0.799000   
288.000000	0.778000   
288.500000	0.936000   
289.000000	0.866000   
289.500000	1.070000   
290.000000	0.959000   
290.500000	0.908000   
291.000000	0.921000   
291.500000	0.803000   
292.000000	0.911000   
292.500000	1.040000   
293.000000	0.916000   
293.500000	0.962000   
294.000000	0.926000   
294.500000	0.981000   
295.000000	1.068000   
295.500000	0.946000   
296.000000	0.899000   
296.500000	0.980000   
297.000000	1.184000   
297.500000	1.000000   
298.000000	1.012000   
298.500000	0.967000   
299.000000	1.035000   
299.500000	1.117000   
300.000000	1.072000   
300.500000	1.038000   
301.000000	0.989000   
301.500000	1.113000   
302.000000	0.981000   
302.500000	0.956000   
303.000000	1.221000   
303.500000	1.271000   
304.000000	1.110000   
304.500000	0.933000   
305.000000	1.162000   
305.500000	1.260000   
306.000000	1.254000   
306.500000	1.283000   
307.000000	1.220000   
307.500000	1.227000   
308.000000	1.164000   
308.500000	1.323000   
309.000000	1.274000   
309.500000	1.378000   
310.000000	1.424000   
310.500000	1.473000   
311.000000	1.239000   
311.500000	1.505000   
312.000000	1.743000   
312.500000	1.489000   
313.000000	1.386000   
313.500000	1.425000   
314.000000	1.464000   
314.500000	1.592000   
315.000000	1.823000   
315.500000	1.841000   
316.000000	1.813000   
316.500000	1.911000   
317.000000	1.747000   
317.500000	1.938000   
318.000000	1.882000   
318.500000	2.207000   
319.000000	2.005000   
319.500000	1.824000   
320.000000	2.179000   
320.500000	2.298000   
321.000000	2.520000   
321.500000	2.084000   
322.000000	2.347000   
322.500000	2.306000   
323.000000	2.569000   
323.500000	2.578000   
324.000000	2.427000   
324.500000	2.419000   
325.000000	2.636000   
325.500000	2.729000   
326.000000	2.903000   
326.500000	2.988000   
327.000000	2.861000   
327.500000	3.168000   
328.000000	3.116000   
328.500000	3.252000   
329.000000	3.335000   
329.500000	3.457000   
330.000000	3.617000   
330.500000	3.882000   
331.000000	3.969000   
331.500000	3.907000   
332.000000	4.003000   
332.500000	4.223000   
333.000000	4.306000   
333.500000	4.141000   
334.000000	4.560000   
334.500000	4.814000   
335.000000	4.921000   
335.500000	4.897000   
336.000000	5.354000   
336.500000	5.168000   
337.000000	5.339000   
337.500000	5.784000   
338.000000	5.870000   
338.500000	6.286000   
339.000000	6.109000   
339.500000	6.137000   
340.000000	6.916000   
340.500000	6.965000   
341.000000	6.770000   
341.500000	7.000000   
342.000000	7.157000   
342.500000	7.697000   
343.000000	7.701000   
343.500000	8.159000   
344.000000	8.553000   
344.500000	8.337000   
345.000000	9.009000   
345.500000	10.070000  
346.000000	11.584000  
346.500000	12.991000  
347.000000	16.173000  
347.500000	18.764000  
348.000000	24.133000  
348.500000	29.156000  
349.000000	38.597000  
349.500000	47.920000  
350.000000	62.924000  
350.500000	79.384000  
351.000000	106.464000 
351.500000	128.105000 
352.000000	162.306000 
352.500000	192.808000 
353.000000	238.669000 
353.500000	281.294000 
354.000000	336.600000 
354.500000	396.224000 
355.000000	523.125000 
355.500000	589.065000 
356.000000	660.720000 
356.500000	673.624000 
357.000000	812.269000 
357.500000	824.429999 
358.000000	960.764000 
358.500000	999.999000 
359.000000	999.999000 
359.500000	999.999000 
360.000000	999.999000 
360.500000	999.999000 
361.000000	999.999000 
361.500000	999.999000 
362.000000	999.999000 
362.500000	999.999000 
363.000000	999.999000 
363.500000	999.999000 
364.000000	999.999000 
364.500000	999.999000 
365.000000	999.999000 
365.500000	999.999000 
366.000000	999.999000 
366.500000	999.999000 
367.000000	999.999000 
367.500000	999.999000 
368.000000	999.999000 
368.500000	999.999000 
369.000000	999.999000 
369.500000	999.999000 
370.000000	999.999000 
370.500000	999.999000 
371.000000	999.999000 
371.500000	999.999000 
372.000000	999.999000 
372.500000	999.999000 
373.000000	999.999000 
373.500000	976.347000 
374.000000	963.592000 
374.500000	836.471000 
375.000000	748.888000 
375.500000	736.294000 
376.000000	597.503000 
376.500000	585.784000 
377.000000	460.011000 
377.500000	450.156000 
378.000000	398.103000 
378.500000	339.005000 
379.000000	294.073000 
379.500000	243.686000 
380.000000	206.647000 
380.500000	168.897000 
381.000000	141.181000 
381.500000	115.022000 
382.000000	92.405000  
382.500000	77.913000  
383.000000	63.698000  
383.500000	52.792000  
384.000000	44.262000  
384.500000	36.873000  
385.000000	33.198000  
385.500000	29.086000  
386.000000	26.285000  
386.500000	24.808000  
387.000000	24.293000  
387.500000	23.985000  
388.000000	23.011000  
388.500000	22.983000  
389.000000	22.933000  
389.500000	22.704000  
390.000000	23.530000  
390.500000	23.294000  
391.000000	23.800000  
391.500000	23.651000  
392.000000	23.796000  
392.500000	24.453000  
393.000000	24.604000  
393.500000	25.296000  
394.000000	25.469000  
394.500000	25.871000  
395.000000	26.352000  
395.500000	26.925000  
396.000000	26.723000  
396.500000	27.131000  
397.000000	28.541000  
397.500000	28.654000  
398.000000	28.908000  
398.500000	30.410000  
399.000000	30.935000  
399.500000	31.193000  
400.000000	32.683000  
400.500000	33.642000  
401.000000	35.022000  
401.500000	35.036000  
402.000000	35.982000  
402.500000	36.479000  
403.000000	37.732000  
403.500000	38.799000  
404.000000	40.301000  
404.500000	41.785000  
405.000000	43.213000  
405.500000	45.413000  
406.000000	47.868000  
406.500000	47.997000  
407.000000	49.762000  
407.500000	52.313000  
408.000000	54.751000  
408.500000	56.971000  
409.000000	58.374000  
409.500000	60.515000  
410.000000	62.736000  
410.500000	66.186000  
411.000000	66.643000  
411.500000	70.325999  
412.000000	70.602000  
412.500000	74.128000  
413.000000	76.584000  
413.500000	77.589000  
414.000000	80.027000  
414.500000	82.346000  
415.000000	83.558000  
415.500000	85.284000  
416.000000	87.116000  
416.500000	88.627000  
417.000000	88.515000  
417.500000	91.686000  
418.000000	92.839000  
418.500000	92.363000  
419.000000	92.090999  
419.500000	93.186000  
420.000000	95.507000  
420.500000	94.436000  
421.000000	92.501000  
421.500000	92.776000  
422.000000	93.933000  
422.500000	93.260000  
423.000000	92.027000  
423.500000	90.876000  
424.000000	91.125000  
424.500000	89.766000  
425.000000	88.074000  
425.500000	86.425000  
426.000000	86.914000  
426.500000	83.787000  
427.000000	83.124000  
427.500000	82.702000  
428.000000	82.319999  
428.500000	81.009000  
429.000000	79.003000  
429.500000	77.944999  
430.000000	76.587000  
430.500000	77.976000  
431.000000	75.816000  
431.500000	75.608999  
432.000000	74.467000  
432.500000	73.292000  
433.000000	72.839000  
433.500000	73.791000  
434.000000	72.535000  
434.500000	72.679000  
435.000000	71.854000  
435.500000	72.514000  
436.000000	72.351000  
436.500000	72.739999  
437.000000	73.152000  
437.500000	72.658000  
438.000000	72.182000  
438.500000	71.367000  
439.000000	70.721999  
439.500000	71.934000  
440.000000	72.300000  
440.500000	71.399000  
441.000000	72.200999  
441.500000	72.126000  
442.000000	72.977999  
442.500000	71.962999  
443.000000	73.360000  
443.500000	71.726000  
444.000000	72.281000  
444.500000	72.917000  
445.000000	71.621000  
445.500000	72.479000  
446.000000	74.211000  
446.500000	73.462999  
447.000000	73.691000  
447.500000	71.857000  
448.000000	72.700000  
448.500000	72.351000  
449.000000	72.799000  
449.500000	73.714000  
450.000000	73.390000  
450.500000	71.655000  
451.000000	72.274000  
451.500000	72.149000  
452.000000	72.709999  
452.500000	71.653000  
453.000000	71.744000  
453.500000	70.828000  
454.000000	70.851000  
454.500000	72.373000  
455.000000	69.691000  
455.500000	70.631000  
456.000000	69.784000  
456.500000	69.458000  
457.000000	69.415000  
457.500000	69.086000  
458.000000	68.581999  
458.500000	69.061000  
459.000000	69.627000  
459.500000	68.390000  
460.000000	66.536000  
460.500000	66.953999  
461.000000	65.646000  
461.500000	65.873000  
462.000000	65.700000  
462.500000	65.408000  
463.000000	65.191000  
463.500000	64.488000  
464.000000	63.536000  
464.500000	64.348000  
465.000000	65.163000  
465.500000	63.115000  
466.000000	62.521000  
466.500000	62.229000  
467.000000	63.102000  
467.500000	62.786000  
468.000000	61.574000  
468.500000	61.596000  
469.000000	61.077000  
469.500000	59.184000  
470.000000	58.902000  
470.500000	60.053000  
471.000000	59.159000  
471.500000	58.086000  
472.000000	58.411000  
472.500000	59.030000  
473.000000	58.806000  
473.500000	57.761000  
474.000000	57.286000  
474.500000	56.813000  
475.000000	56.375000  
475.500000	56.219000  
476.000000	56.033000  
476.500000	54.636000  
477.000000	54.680000  
477.500000	55.198000  
478.000000	55.292000  
478.500000	54.271000  
479.000000	53.841000  
479.500000	53.504000  
480.000000	53.452000  
480.500000	52.640000  
481.000000	52.641000  
481.500000	51.864000  
482.000000	51.046000  
482.500000	51.092000  
483.000000	51.098000  
483.500000	50.138000  
484.000000	49.567000  
484.500000	49.412000  
485.000000	49.221000  
485.500000	49.444000  
486.000000	48.822000  
486.500000	49.150000  
487.000000	47.714000  
487.500000	47.877000  
488.000000	47.810000  
488.500000	46.292000  
489.000000	46.975000  
489.500000	45.776000  
490.000000	45.481000  
490.500000	45.712000  
491.000000	44.780000  
491.500000	43.824000  
492.000000	43.498000  
492.500000	43.151000  
493.000000	43.700000  
493.500000	44.080000  
494.000000	42.014000  
494.500000	41.667000  
495.000000	41.592000  
495.500000	41.591000  
496.000000	40.669000  
496.500000	40.473000  
497.000000	40.080000  
497.500000	38.933000  
498.000000	39.721000  
498.500000	38.667000  
499.000000	38.755000  
499.500000	37.733000  
500.000000	38.464000  
500.500000	37.243000  
501.000000	37.248000  
501.500000	36.670000  
502.000000	36.375000  
502.500000	36.102000  
503.000000	37.053000  
503.500000	34.703000  
504.000000	35.121000  
504.500000	35.089000  
505.000000	34.243000  
505.500000	33.888000  
506.000000	33.709000  
506.500000	33.310000  
507.000000	33.654000  
507.500000	32.087000  
508.000000	30.991000  
508.500000	30.697000  
509.000000	31.934000  
509.500000	31.324000  
510.000000	31.289000  
510.500000	30.148000  
511.000000	30.128000  
511.500000	30.163000  
512.000000	28.790000  
512.500000	29.403000  
513.000000	29.578000  
513.500000	29.419000  
514.000000	28.345000  
514.500000	27.190000  
515.000000	27.762000  
515.500000	27.140000  
516.000000	27.219000  
516.500000	27.353000  
517.000000	26.486000  
517.500000	26.391000  
518.000000	26.722000  
518.500000	25.840000  
519.000000	25.059000  
519.500000	25.707000  
520.000000	25.550000  
520.500000	24.974000  
521.000000	24.022000  
521.500000	24.259000  
522.000000	24.251000  
522.500000	24.167000  
523.000000	23.537000  
523.500000	22.215000  
524.000000	22.548000  
524.500000	22.845000  
525.000000	22.615000  
525.500000	21.312000  
526.000000	21.483000  
526.500000	22.148000  
527.000000	21.066000  
527.500000	20.717000  
528.000000	20.498000  
528.500000	19.981000  
529.000000	19.762000  
529.500000	19.851000  
530.000000	19.461000  
530.500000	19.116000  
531.000000	18.365000  
531.500000	18.405000  
532.000000	18.307000  
532.500000	18.208000  
533.000000	18.302000  
533.500000	17.111000  
534.000000	17.029000  
534.500000	17.284000  
535.000000	16.780000  
535.500000	16.516000  
536.000000	17.248000  
536.500000	17.246000  
537.000000	15.990000  
537.500000	15.803000  
538.000000	15.641000  
538.500000	14.850000  
539.000000	14.827000  
539.500000	15.074000  
540.000000	14.515000  
540.500000	14.287000  
541.000000	13.852000  
541.500000	13.564000  
542.000000	13.564000  
542.500000	13.295000  
543.000000	13.404000  
543.500000	13.231000  
544.000000	13.299000  
544.500000	12.435000  
545.000000	12.384000  
545.500000	13.073000  
546.000000	12.412000  
546.500000	11.708000  
547.000000	11.312000  
547.500000	11.111000  
548.000000	11.290000  
548.500000	11.764000  

