PE FL                   SPECTRUM    ASCII       PEDS        1.60        
  -1
015507~1.SP
19/01/24
13:32:00.00
19/01/24
13:32:00.00


548.500000
1









LS45
465.00
10.00
10.00
SCAN
1
16
100
100
0
600
0
1
0
1
7
ON
550 545 
0 0 0
#HDR
-1
-1
#GR
NM
INT 
0.00002384185791015625
0.0
230.000000
0.500000
638
8
849.986000
0.062000
#DATA
230.000000	0.090000   
230.500000	0.085999   
231.000000	0.090000   
231.500000	0.097000   
232.000000	0.126000   
232.500000	0.137000   
233.000000	0.122000   
233.500000	0.097000   
234.000000	0.124000   
234.500000	0.118000   
235.000000	0.091000   
235.500000	0.077000   
236.000000	0.125000   
236.500000	0.108000   
237.000000	0.116000   
237.500000	0.127000   
238.000000	0.143000   
238.500000	0.103000   
239.000000	0.096000   
239.500000	0.076000   
240.000000	0.130000   
240.500000	0.095000   
241.000000	0.107000   
241.500000	0.124000   
242.000000	0.104000   
242.500000	0.223000   
243.000000	0.132000   
243.500000	0.165000   
244.000000	0.085999   
244.500000	0.135000   
245.000000	0.149000   
245.500000	0.117000   
246.000000	0.128000   
246.500000	0.146000   
247.000000	0.119000   
247.500000	0.151000   
248.000000	0.139000   
248.500000	0.165000   
249.000000	0.183000   
249.500000	0.098000   
250.000000	0.113000   
250.500000	0.093000   
251.000000	0.062000   
251.500000	0.169000   
252.000000	0.111000   
252.500000	0.132000   
253.000000	0.120000   
253.500000	0.094000   
254.000000	0.145000   
254.500000	0.186000   
255.000000	0.139000   
255.500000	0.108000   
256.000000	0.141000   
256.500000	0.074000   
257.000000	0.131000   
257.500000	0.216000   
258.000000	0.203000   
258.500000	0.191000   
259.000000	0.195000   
259.500000	0.197000   
260.000000	0.169000   
260.500000	0.191000   
261.000000	0.144000   
261.500000	0.164000   
262.000000	0.161000   
262.500000	0.150000   
263.000000	0.135000   
263.500000	0.127000   
264.000000	0.187000   
264.500000	0.172000   
265.000000	0.132000   
265.500000	0.136000   
266.000000	0.149000   
266.500000	0.217000   
267.000000	0.132000   
267.500000	0.117000   
268.000000	0.146000   
268.500000	0.134000   
269.000000	0.153000   
269.500000	0.142000   
270.000000	0.120000   
270.500000	0.179000   
271.000000	0.084000   
271.500000	0.154000   
272.000000	0.181000   
272.500000	0.186000   
273.000000	0.170000   
273.500000	0.113000   
274.000000	0.119000   
274.500000	0.092000   
275.000000	0.151000   
275.500000	0.132000   
276.000000	0.120000   
276.500000	0.150000   
277.000000	0.098000   
277.500000	0.137000   
278.000000	0.179000   
278.500000	0.108000   
279.000000	0.094000   
279.500000	0.087999   
280.000000	0.175000   
280.500000	0.127000   
281.000000	0.151000   
281.500000	0.183000   
282.000000	0.161000   
282.500000	0.170000   
283.000000	0.160000   
283.500000	0.179000   
284.000000	0.200000   
284.500000	0.185000   
285.000000	0.158000   
285.500000	0.109000   
286.000000	0.115000   
286.500000	0.153000   
287.000000	0.207000   
287.500000	0.224000   
288.000000	0.136000   
288.500000	0.158000   
289.000000	0.197000   
289.500000	0.173000   
290.000000	0.188000   
290.500000	0.220000   
291.000000	0.176000   
291.500000	0.167000   
292.000000	0.157000   
292.500000	0.146000   
293.000000	0.153000   
293.500000	0.195000   
294.000000	0.162000   
294.500000	0.196000   
295.000000	0.237000   
295.500000	0.268000   
296.000000	0.206000   
296.500000	0.220000   
297.000000	0.220000   
297.500000	0.227000   
298.000000	0.189000   
298.500000	0.183000   
299.000000	0.184000   
299.500000	0.174000   
300.000000	0.166000   
300.500000	0.148000   
301.000000	0.175000   
301.500000	0.135000   
302.000000	0.131000   
302.500000	0.181000   
303.000000	0.244000   
303.500000	0.207000   
304.000000	0.163000   
304.500000	0.180000   
305.000000	0.174000   
305.500000	0.259000   
306.000000	0.286000   
306.500000	0.275000   
307.000000	0.231000   
307.500000	0.215000   
308.000000	0.215000   
308.500000	0.296000   
309.000000	0.242000   
309.500000	0.236000   
310.000000	0.233000   
310.500000	0.230000   
311.000000	0.256000   
311.500000	0.229000   
312.000000	0.273000   
312.500000	0.249000   
313.000000	0.260000   
313.500000	0.271000   
314.000000	0.334000   
314.500000	0.326000   
315.000000	0.231000   
315.500000	0.225000   
316.000000	0.239000   
316.500000	0.240000   
317.000000	0.187000   
317.500000	0.228000   
318.000000	0.204000   
318.500000	0.295000   
319.000000	0.326000   
319.500000	0.314000   
320.000000	0.354000   
320.500000	0.302000   
321.000000	0.330000   
321.500000	0.380000   
322.000000	0.335000   
322.500000	0.298000   
323.000000	0.344000   
323.500000	0.349000   
324.000000	0.360000   
324.500000	0.293000   
325.000000	0.293000   
325.500000	0.318000   
326.000000	0.299000   
326.500000	0.316000   
327.000000	0.433000   
327.500000	0.324000   
328.000000	0.328000   
328.500000	0.339000   
329.000000	0.321000   
329.500000	0.420000   
330.000000	0.380000   
330.500000	0.387000   
331.000000	0.330000   
331.500000	0.325000   
332.000000	0.386000   
332.500000	0.350000   
333.000000	0.384000   
333.500000	0.459000   
334.000000	0.374000   
334.500000	0.388000   
335.000000	0.402000   
335.500000	0.435000   
336.000000	0.504000   
336.500000	0.473000   
337.000000	0.420000   
337.500000	0.442000   
338.000000	0.523000   
338.500000	0.516000   
339.000000	0.495000   
339.500000	0.429000   
340.000000	0.409000   
340.500000	0.467000   
341.000000	0.359000   
341.500000	0.355000   
342.000000	0.431000   
342.500000	0.406000   
343.000000	0.541000   
343.500000	0.465000   
344.000000	0.445000   
344.500000	0.395000   
345.000000	0.357000   
345.500000	0.352000   
346.000000	0.466000   
346.500000	0.418000   
347.000000	0.444000   
347.500000	0.549000   
348.000000	0.456000   
348.500000	0.549000   
349.000000	0.566999   
349.500000	0.523000   
350.000000	0.361000   
350.500000	0.466000   
351.000000	0.468000   
351.500000	0.466000   
352.000000	0.503000   
352.500000	0.603000   
353.000000	0.588000   
353.500000	0.498000   
354.000000	0.494000   
354.500000	0.534000   
355.000000	0.453000   
355.500000	0.552000   
356.000000	0.513000   
356.500000	0.571000   
357.000000	0.557000   
357.500000	0.580000   
358.000000	0.578000   
358.500000	0.585000   
359.000000	0.588000   
359.500000	0.608000   
360.000000	0.578000   
360.500000	0.565999   
361.000000	0.550000   
361.500000	0.543000   
362.000000	0.478000   
362.500000	0.576000   
363.000000	0.524000   
363.500000	0.524000   
364.000000	0.472000   
364.500000	0.543000   
365.000000	0.532000   
365.500000	0.610000   
366.000000	0.558000   
366.500000	0.580000   
367.000000	0.612000   
367.500000	0.714000   
368.000000	0.657000   
368.500000	0.651000   
369.000000	0.565999   
369.500000	0.512000   
370.000000	0.528000   
370.500000	0.604000   
371.000000	0.733000   
371.500000	0.653000   
372.000000	0.734000   
372.500000	0.645000   
373.000000	0.638000   
373.500000	0.705000   
374.000000	0.643000   
374.500000	0.697000   
375.000000	0.642000   
375.500000	0.666000   
376.000000	0.619000   
376.500000	0.543000   
377.000000	0.529000   
377.500000	0.661000   
378.000000	0.765000   
378.500000	0.688999   
379.000000	0.677000   
379.500000	0.630000   
380.000000	0.662000   
380.500000	0.591000   
381.000000	0.647000   
381.500000	0.730000   
382.000000	0.776000   
382.500000	0.690999   
383.000000	0.584000   
383.500000	0.765000   
384.000000	0.646000   
384.500000	0.682000   
385.000000	0.775000   
385.500000	0.828000   
386.000000	0.640000   
386.500000	0.658000   
387.000000	0.811000   
387.500000	0.773000   
388.000000	0.753000   
388.500000	0.814999   
389.000000	0.779000   
389.500000	0.781000   
390.000000	0.794000   
390.500000	0.774000   
391.000000	0.813999   
391.500000	0.671000   
392.000000	0.837000   
392.500000	0.761000   
393.000000	0.724000   
393.500000	0.832000   
394.000000	0.823000   
394.500000	0.834000   
395.000000	0.882000   
395.500000	0.811000   
396.000000	0.823000   
396.500000	0.790000   
397.000000	0.843000   
397.500000	0.852000   
398.000000	0.964000   
398.500000	1.025000   
399.000000	0.812000   
399.500000	0.970000   
400.000000	1.009000   
400.500000	1.124000   
401.000000	1.076000   
401.500000	1.132000   
402.000000	1.100000   
402.500000	0.962000   
403.000000	0.942999   
403.500000	0.953000   
404.000000	0.947000   
404.500000	1.056000   
405.000000	1.039000   
405.500000	1.146000   
406.000000	1.170000   
406.500000	1.180000   
407.000000	1.238000   
407.500000	1.233000   
408.000000	1.235000   
408.500000	1.314000   
409.000000	1.405000   
409.500000	1.579000   
410.000000	1.236000   
410.500000	1.318000   
411.000000	1.324000   
411.500000	1.283000   
412.000000	1.506000   
412.500000	1.437000   
413.000000	1.412000   
413.500000	1.583000   
414.000000	1.566000   
414.500000	1.532000   
415.000000	1.618000   
415.500000	1.630000   
416.000000	1.656000   
416.500000	1.711000   
417.000000	1.790000   
417.500000	1.802000   
418.000000	1.648000   
418.500000	1.617000   
419.000000	1.796000   
419.500000	1.758000   
420.000000	1.840000   
420.500000	1.799000   
421.000000	1.738000   
421.500000	1.886000   
422.000000	1.819000   
422.500000	1.956000   
423.000000	2.075000   
423.500000	2.196000   
424.000000	2.066000   
424.500000	2.122000   
425.000000	2.311000   
425.500000	1.994000   
426.000000	2.087000   
426.500000	2.228000   
427.000000	2.259000   
427.500000	2.273000   
428.000000	2.287000   
428.500000	2.420000   
429.000000	2.136000   
429.500000	2.443000   
430.000000	2.595000   
430.500000	2.183000   
431.000000	2.438000   
431.500000	2.446000   
432.000000	2.264000   
432.500000	2.510000   
433.000000	2.639000   
433.500000	2.517000   
434.000000	2.691000   
434.500000	2.771000   
435.000000	2.788000   
435.500000	2.948000   
436.000000	3.113000   
436.500000	3.090000   
437.000000	3.016000   
437.500000	3.099000   
438.000000	3.297000   
438.500000	3.344000   
439.000000	3.355000   
439.500000	3.679000   
440.000000	3.770000   
440.500000	3.925000   
441.000000	4.583000   
441.500000	5.247000   
442.000000	6.413000   
442.500000	7.941000   
443.000000	9.542999   
443.500000	12.619000  
444.000000	16.878000  
444.500000	21.925000  
445.000000	28.404000  
445.500000	36.769000  
446.000000	45.579000  
446.500000	61.025000  
447.000000	77.013000  
447.500000	96.474999  
448.000000	114.882000 
448.500000	143.032000 
449.000000	165.119000 
449.500000	200.528000 
450.000000	226.390000 
450.500000	268.667000 
451.000000	299.387000 
451.500000	342.163000 
452.000000	373.813000 
452.500000	416.101000 
453.000000	455.515000 
453.500000	509.299000 
454.000000	541.372000 
454.500000	584.832000 
455.000000	627.832000 
455.500000	666.690000 
456.000000	693.450000 
456.500000	732.860000 
457.000000	758.666000 
457.500000	784.032000 
458.000000	804.196000 
458.500000	816.889000 
459.000000	830.104000 
459.500000	843.259000 
460.000000	846.929999 
460.500000	849.986000 
461.000000	844.490000 
461.500000	844.952000 
462.000000	835.588000 
462.500000	825.806000 
463.000000	805.532000 
463.500000	789.005000 
464.000000	765.577000 
464.500000	743.800000 
465.000000	709.202000 
465.500000	677.698000 
466.000000	643.665000 
466.500000	613.081000 
467.000000	572.090000 
467.500000	476.971000 
468.000000	471.828000 
468.500000	441.623000 
469.000000	396.384000 
469.500000	360.599000 
470.000000	316.670000 
470.500000	278.529000 
471.000000	242.908000 
471.500000	218.524000 
472.000000	184.752000 
472.500000	159.056000 
473.000000	129.138000 
473.500000	112.671000 
474.000000	96.134000  
474.500000	80.852000  
475.000000	65.688999  
475.500000	54.546000  
476.000000	42.459000  
476.500000	34.754000  
477.000000	28.488000  
477.500000	23.310000  
478.000000	17.879000  
478.500000	13.513000  
479.000000	11.681000  
479.500000	10.459000  
480.000000	8.756000   
480.500000	7.786000   
481.000000	7.624000   
481.500000	7.189000   
482.000000	6.771000   
482.500000	6.660000   
483.000000	6.728000   
483.500000	6.547000   
484.000000	6.496000   
484.500000	6.531000   
485.000000	6.766000   
485.500000	6.725000   
486.000000	6.673000   
486.500000	6.643000   
487.000000	6.853000   
487.500000	6.724000   
488.000000	6.910000   
488.500000	6.981000   
489.000000	6.730000   
489.500000	6.869000   
490.000000	6.835000   
490.500000	7.114000   
491.000000	7.142000   
491.500000	6.706000   
492.000000	6.997000   
492.500000	7.242000   
493.000000	7.431000   
493.500000	7.235000   
494.000000	7.461000   
494.500000	7.212000   
495.000000	7.250000   
495.500000	7.523000   
496.000000	7.647000   
496.500000	7.284000   
497.000000	7.332000   
497.500000	7.529000   
498.000000	7.593000   
498.500000	7.709000   
499.000000	7.575000   
499.500000	7.479000   
500.000000	7.629000   
500.500000	7.703000   
501.000000	7.724000   
501.500000	7.511000   
502.000000	7.440000   
502.500000	7.349000   
503.000000	7.445000   
503.500000	7.860000   
504.000000	7.586000   
504.500000	7.603000   
505.000000	7.786000   
505.500000	7.519000   
506.000000	7.715000   
506.500000	7.762000   
507.000000	7.396000   
507.500000	7.808000   
508.000000	7.678000   
508.500000	7.551000   
509.000000	7.638000   
509.500000	7.704000   
510.000000	8.134000   
510.500000	7.487000   
511.000000	7.681000   
511.500000	7.876000   
512.000000	7.619000   
512.500000	7.660000   
513.000000	7.592000   
513.500000	7.203000   
514.000000	7.478000   
514.500000	7.329000   
515.000000	7.605000   
515.500000	7.781000   
516.000000	7.519000   
516.500000	7.486000   
517.000000	7.866000   
517.500000	7.498000   
518.000000	7.491000   
518.500000	7.657000   
519.000000	7.600000   
519.500000	7.229000   
520.000000	7.273000   
520.500000	7.683000   
521.000000	7.163000   
521.500000	6.998000   
522.000000	7.326000   
522.500000	7.253000   
523.000000	7.289000   
523.500000	7.107000   
524.000000	7.022000   
524.500000	7.074000   
525.000000	7.111000   
525.500000	6.993000   
526.000000	6.774000   
526.500000	6.914000   
527.000000	7.033000   
527.500000	6.792000   
528.000000	7.175000   
528.500000	6.933000   
529.000000	7.027000   
529.500000	7.107000   
530.000000	6.863000   
530.500000	6.725000   
531.000000	6.771000   
531.500000	7.236000   
532.000000	7.359000   
532.500000	6.725000   
533.000000	6.841000   
533.500000	6.856000   
534.000000	6.760000   
534.500000	6.934000   
535.000000	7.060000   
535.500000	6.976000   
536.000000	7.205000   
536.500000	7.029000   
537.000000	7.037000   
537.500000	7.337000   
538.000000	7.168000   
538.500000	7.261000   
539.000000	7.135000   
539.500000	6.994000   
540.000000	7.443000   
540.500000	7.488000   
541.000000	7.461000   
541.500000	7.761000   
542.000000	8.041000   
542.500000	7.916000   
543.000000	7.916000   
543.500000	7.486000   
544.000000	7.560000   
544.500000	7.043000   
545.000000	7.506000   
545.500000	7.339000   
546.000000	7.459000   
546.500000	7.592000   
547.000000	7.143000   
547.500000	7.486000   
548.000000	6.809000   
548.500000	7.180000   

