PE FL                   SPECTRUM    ASCII       PEDS        1.60        
  -1
0124SC~1.SP
19/01/24
13:24:28.00
19/01/24
13:24:28.00


548.500000
1









LS45
415.00
10.00
10.00
SCAN
1
16
100
100
0
600
0
1
0
1
7
ON
550 545 
0 0 0
#HDR
-1
-1
#GR
NM
INT 
0.00002384185791015625
0.0
230.000000
0.500000
638
8
999.999000
0.177000
#DATA
230.000000	0.317000   
230.500000	0.257000   
231.000000	0.321000   
231.500000	0.238000   
232.000000	0.325000   
232.500000	0.359000   
233.000000	0.360000   
233.500000	0.261000   
234.000000	0.315000   
234.500000	0.214000   
235.000000	0.282000   
235.500000	0.325000   
236.000000	0.291000   
236.500000	0.213000   
237.000000	0.214000   
237.500000	0.315000   
238.000000	0.320000   
238.500000	0.326000   
239.000000	0.310000   
239.500000	0.229000   
240.000000	0.233000   
240.500000	0.248000   
241.000000	0.251000   
241.500000	0.256000   
242.000000	0.177000   
242.500000	0.184000   
243.000000	0.279000   
243.500000	0.232000   
244.000000	0.249000   
244.500000	0.326000   
245.000000	0.281000   
245.500000	0.195000   
246.000000	0.259000   
246.500000	0.182000   
247.000000	0.216000   
247.500000	0.234000   
248.000000	0.203000   
248.500000	0.243000   
249.000000	0.296000   
249.500000	0.213000   
250.000000	0.223000   
250.500000	0.267000   
251.000000	0.232000   
251.500000	0.276000   
252.000000	0.203000   
252.500000	0.252000   
253.000000	0.306000   
253.500000	0.252000   
254.000000	0.226000   
254.500000	0.250000   
255.000000	0.285000   
255.500000	0.221000   
256.000000	0.266000   
256.500000	0.263000   
257.000000	0.365000   
257.500000	0.229000   
258.000000	0.366000   
258.500000	0.416000   
259.000000	0.380000   
259.500000	0.340000   
260.000000	0.321000   
260.500000	0.384000   
261.000000	0.275000   
261.500000	0.365000   
262.000000	0.387000   
262.500000	0.316000   
263.000000	0.305000   
263.500000	0.286000   
264.000000	0.361000   
264.500000	0.316000   
265.000000	0.331000   
265.500000	0.368000   
266.000000	0.278000   
266.500000	0.292000   
267.000000	0.322000   
267.500000	0.279000   
268.000000	0.303000   
268.500000	0.254000   
269.000000	0.289000   
269.500000	0.295000   
270.000000	0.344000   
270.500000	0.315000   
271.000000	0.281000   
271.500000	0.196000   
272.000000	0.294000   
272.500000	0.313000   
273.000000	0.240000   
273.500000	0.350000   
274.000000	0.407000   
274.500000	0.324000   
275.000000	0.257000   
275.500000	0.292000   
276.000000	0.349000   
276.500000	0.393000   
277.000000	0.331000   
277.500000	0.350000   
278.000000	0.421000   
278.500000	0.397000   
279.000000	0.376000   
279.500000	0.410000   
280.000000	0.422000   
280.500000	0.378000   
281.000000	0.357000   
281.500000	0.409000   
282.000000	0.354000   
282.500000	0.330000   
283.000000	0.342000   
283.500000	0.355000   
284.000000	0.346000   
284.500000	0.428000   
285.000000	0.397000   
285.500000	0.293000   
286.000000	0.326000   
286.500000	0.355000   
287.000000	0.324000   
287.500000	0.299000   
288.000000	0.329000   
288.500000	0.409000   
289.000000	0.430000   
289.500000	0.476000   
290.000000	0.301000   
290.500000	0.421000   
291.000000	0.293000   
291.500000	0.338000   
292.000000	0.362000   
292.500000	0.377000   
293.000000	0.277000   
293.500000	0.351000   
294.000000	0.403000   
294.500000	0.383000   
295.000000	0.339000   
295.500000	0.458000   
296.000000	0.381000   
296.500000	0.396000   
297.000000	0.407000   
297.500000	0.372000   
298.000000	0.462000   
298.500000	0.397000   
299.000000	0.430000   
299.500000	0.449000   
300.000000	0.395000   
300.500000	0.399000   
301.000000	0.389000   
301.500000	0.457000   
302.000000	0.360000   
302.500000	0.457000   
303.000000	0.464000   
303.500000	0.549000   
304.000000	0.450000   
304.500000	0.480000   
305.000000	0.504000   
305.500000	0.442000   
306.000000	0.416000   
306.500000	0.535000   
307.000000	0.451000   
307.500000	0.418000   
308.000000	0.648000   
308.500000	0.503000   
309.000000	0.510000   
309.500000	0.529000   
310.000000	0.460000   
310.500000	0.532000   
311.000000	0.601000   
311.500000	0.562999   
312.000000	0.433000   
312.500000	0.487000   
313.000000	0.571000   
313.500000	0.605000   
314.000000	0.537000   
314.500000	0.492000   
315.000000	0.512000   
315.500000	0.562999   
316.000000	0.621000   
316.500000	0.555000   
317.000000	0.610000   
317.500000	0.720000   
318.000000	0.546000   
318.500000	0.615000   
319.000000	0.685000   
319.500000	0.724000   
320.000000	0.596000   
320.500000	0.705000   
321.000000	0.678000   
321.500000	0.764000   
322.000000	0.764000   
322.500000	0.740000   
323.000000	0.775000   
323.500000	0.754000   
324.000000	0.757000   
324.500000	0.675000   
325.000000	0.782000   
325.500000	0.739000   
326.000000	0.565999   
326.500000	0.790000   
327.000000	0.699000   
327.500000	0.773000   
328.000000	0.788000   
328.500000	0.746000   
329.000000	0.812999   
329.500000	0.656000   
330.000000	0.706000   
330.500000	0.785000   
331.000000	0.769000   
331.500000	0.876000   
332.000000	0.830000   
332.500000	0.834000   
333.000000	0.787000   
333.500000	0.786000   
334.000000	0.798000   
334.500000	0.861000   
335.000000	1.130000   
335.500000	1.023000   
336.000000	1.004000   
336.500000	0.739000   
337.000000	0.941999   
337.500000	0.838000   
338.000000	0.707000   
338.500000	0.848000   
339.000000	0.948000   
339.500000	0.885000   
340.000000	0.861000   
340.500000	0.920000   
341.000000	1.036000   
341.500000	0.905000   
342.000000	0.884000   
342.500000	1.064000   
343.000000	0.936000   
343.500000	0.971000   
344.000000	0.989000   
344.500000	1.028000   
345.000000	0.945000   
345.500000	1.072000   
346.000000	1.062000   
346.500000	1.025000   
347.000000	0.990000   
347.500000	1.165000   
348.000000	1.123000   
348.500000	1.071000   
349.000000	1.018000   
349.500000	1.209000   
350.000000	1.183000   
350.500000	1.428000   
351.000000	1.282000   
351.500000	1.290000   
352.000000	1.193000   
352.500000	1.288000   
353.000000	1.480000   
353.500000	1.434000   
354.000000	1.248000   
354.500000	1.419000   
355.000000	1.227000   
355.500000	1.395000   
356.000000	1.357000   
356.500000	1.375000   
357.000000	1.475000   
357.500000	1.546000   
358.000000	1.552000   
358.500000	1.373000   
359.000000	1.603000   
359.500000	1.583000   
360.000000	1.519000   
360.500000	1.608000   
361.000000	1.782000   
361.500000	1.824000   
362.000000	1.789000   
362.500000	2.003000   
363.000000	1.876000   
363.500000	1.873000   
364.000000	2.024000   
364.500000	2.060000   
365.000000	2.103000   
365.500000	1.942000   
366.000000	2.048000   
366.500000	1.991000   
367.000000	2.211000   
367.500000	2.044000   
368.000000	2.248000   
368.500000	2.035000   
369.000000	2.139000   
369.500000	2.409000   
370.000000	2.431000   
370.500000	2.491000   
371.000000	2.870000   
371.500000	2.971000   
372.000000	2.637000   
372.500000	2.633000   
373.000000	2.673000   
373.500000	2.826000   
374.000000	2.734000   
374.500000	2.946000   
375.000000	3.141000   
375.500000	3.041000   
376.000000	3.075000   
376.500000	3.466000   
377.000000	3.228000   
377.500000	3.528000   
378.000000	3.524000   
378.500000	3.623000   
379.000000	3.589000   
379.500000	3.667000   
380.000000	3.611000   
380.500000	3.574000   
381.000000	3.843000   
381.500000	3.869000   
382.000000	4.209000   
382.500000	4.148000   
383.000000	4.169000   
383.500000	4.415000   
384.000000	4.494000   
384.500000	4.637000   
385.000000	4.612000   
385.500000	4.433000   
386.000000	4.760000   
386.500000	4.859000   
387.000000	4.998000   
387.500000	5.150000   
388.000000	5.172000   
388.500000	5.455000   
389.000000	5.963000   
389.500000	5.970000   
390.000000	6.327000   
390.500000	6.609000   
391.000000	7.097000   
391.500000	8.385000   
392.000000	10.668000  
392.500000	12.497000  
393.000000	14.901000  
393.500000	20.256000  
394.000000	24.995000  
394.500000	33.365000  
395.000000	42.951000  
395.500000	56.304000  
396.000000	67.748000  
396.500000	86.816999  
397.000000	108.237000 
397.500000	136.284000 
398.000000	161.894000 
398.500000	198.117000 
399.000000	231.929000 
399.500000	278.113000 
400.000000	321.517000 
400.500000	369.334000 
401.000000	424.669000 
401.500000	476.850000 
402.000000	537.327000 
402.500000	656.679999 
403.000000	665.880000 
403.500000	770.260000 
404.000000	779.768000 
404.500000	887.909000 
405.000000	897.980000 
405.500000	949.241000 
406.000000	999.999000 
406.500000	999.999000 
407.000000	999.999000 
407.500000	999.999000 
408.000000	999.999000 
408.500000	999.999000 
409.000000	999.999000 
409.500000	999.999000 
410.000000	999.999000 
410.500000	999.999000 
411.000000	999.999000 
411.500000	999.999000 
412.000000	999.999000 
412.500000	999.999000 
413.000000	999.999000 
413.500000	999.999000 
414.000000	999.999000 
414.500000	999.999000 
415.000000	999.999000 
415.500000	999.999000 
416.000000	999.999000 
416.500000	999.999000 
417.000000	999.999000 
417.500000	990.502000 
418.000000	883.725000 
418.500000	871.800000 
419.000000	811.304000 
419.500000	750.141000 
420.000000	632.582000 
420.500000	621.674000 
421.000000	510.539000 
421.500000	437.487000 
422.000000	426.052000 
422.500000	371.628000 
423.000000	326.633000 
423.500000	277.725000 
424.000000	237.964000 
424.500000	198.771000 
425.000000	160.709000 
425.500000	127.205000 
426.000000	106.485000 
426.500000	86.527000  
427.000000	70.535000  
427.500000	57.155000  
428.000000	46.485000  
428.500000	37.952000  
429.000000	30.408000  
429.500000	27.249000  
430.000000	23.403000  
430.500000	21.903000  
431.000000	19.446000  
431.500000	18.663000  
432.000000	18.012000  
432.500000	18.550000  
433.000000	17.958000  
433.500000	17.523000  
434.000000	17.790000  
434.500000	18.117000  
435.000000	18.682000  
435.500000	18.290000  
436.000000	18.320000  
436.500000	18.151000  
437.000000	18.766000  
437.500000	19.641000  
438.000000	19.458000  
438.500000	19.687000  
439.000000	19.480000  
439.500000	19.833000  
440.000000	20.051000  
440.500000	19.798000  
441.000000	20.365000  
441.500000	20.427000  
442.000000	21.193000  
442.500000	20.949000  
443.000000	20.508000  
443.500000	20.270000  
444.000000	21.175000  
444.500000	21.628000  
445.000000	20.985000  
445.500000	21.445000  
446.000000	21.627000  
446.500000	22.319000  
447.000000	22.036000  
447.500000	22.102000  
448.000000	21.605000  
448.500000	22.242000  
449.000000	22.781000  
449.500000	22.233000  
450.000000	21.988000  
450.500000	22.990000  
451.000000	22.650000  
451.500000	22.525000  
452.000000	22.251000  
452.500000	23.027000  
453.000000	22.523000  
453.500000	23.255000  
454.000000	22.419000  
454.500000	23.478000  
455.000000	23.163000  
455.500000	22.998000  
456.000000	23.271000  
456.500000	23.375000  
457.000000	23.146000  
457.500000	23.209000  
458.000000	23.613000  
458.500000	24.236000  
459.000000	24.136000  
459.500000	24.686000  
460.000000	25.123000  
460.500000	24.795000  
461.000000	24.823000  
461.500000	24.672000  
462.000000	24.277000  
462.500000	25.293000  
463.000000	26.035000  
463.500000	26.307000  
464.000000	27.584000  
464.500000	26.731000  
465.000000	27.884000  
465.500000	28.973000  
466.000000	29.143000  
466.500000	29.897000  
467.000000	30.013000  
467.500000	29.615000  
468.000000	30.701000  
468.500000	31.110000  
469.000000	31.952000  
469.500000	33.203000  
470.000000	33.388000  
470.500000	33.918000  
471.000000	34.319000  
471.500000	35.513000  
472.000000	35.304000  
472.500000	36.719000  
473.000000	37.084000  
473.500000	37.095000  
474.000000	37.288000  
474.500000	38.955000  
475.000000	38.345000  
475.500000	37.958000  
476.000000	39.036000  
476.500000	39.101000  
477.000000	38.609000  
477.500000	38.714000  
478.000000	39.998000  
478.500000	39.497000  
479.000000	39.341000  
479.500000	38.435000  
480.000000	39.109000  
480.500000	39.008000  
481.000000	39.367000  
481.500000	39.265000  
482.000000	39.283000  
482.500000	38.003000  
483.000000	37.724000  
483.500000	37.030000  
484.000000	37.243000  
484.500000	35.707000  
485.000000	35.788000  
485.500000	36.353000  
486.000000	35.425000  
486.500000	34.674000  
487.000000	33.899000  
487.500000	33.435000  
488.000000	33.985000  
488.500000	33.413000  
489.000000	32.789000  
489.500000	31.135000  
490.000000	31.243000  
490.500000	30.777000  
491.000000	30.214000  
491.500000	29.712000  
492.000000	29.228000  
492.500000	29.543000  
493.000000	29.538000  
493.500000	28.718000  
494.000000	28.594000  
494.500000	27.640000  
495.000000	27.584000  
495.500000	27.132000  
496.000000	26.918000  
496.500000	27.442000  
497.000000	28.168000  
497.500000	27.139000  
498.000000	26.635000  
498.500000	26.199000  
499.000000	26.134000  
499.500000	26.145000  
500.000000	25.682000  
500.500000	25.677000  
501.000000	25.903000  
501.500000	25.619000  
502.000000	25.127000  
502.500000	24.947000  
503.000000	25.221000  
503.500000	26.148000  
504.000000	25.410000  
504.500000	25.416000  
505.000000	24.625000  
505.500000	24.897000  
506.000000	24.455000  
506.500000	24.554000  
507.000000	24.827000  
507.500000	24.521000  
508.000000	23.644000  
508.500000	24.123000  
509.000000	24.178000  
509.500000	23.800000  
510.000000	22.521000  
510.500000	22.902000  
511.000000	23.369000  
511.500000	23.358000  
512.000000	23.532000  
512.500000	23.072000  
513.000000	22.774000  
513.500000	22.860000  
514.000000	22.568000  
514.500000	21.600000  
515.000000	22.017000  
515.500000	22.985000  
516.000000	22.401000  
516.500000	22.089000  
517.000000	21.929000  
517.500000	22.406000  
518.000000	21.937000  
518.500000	21.187000  
519.000000	20.218000  
519.500000	21.313000  
520.000000	21.110000  
520.500000	20.805000  
521.000000	20.304000  
521.500000	19.674000  
522.000000	20.000000  
522.500000	19.878000  
523.000000	19.921000  
523.500000	19.716000  
524.000000	19.813000  
524.500000	19.640000  
525.000000	19.549000  
525.500000	19.330000  
526.000000	19.000000  
526.500000	18.792000  
527.000000	19.206000  
527.500000	18.514000  
528.000000	18.713000  
528.500000	18.038000  
529.000000	17.273000  
529.500000	17.988000  
530.000000	17.210000  
530.500000	17.591000  
531.000000	16.851000  
531.500000	16.578000  
532.000000	16.933000  
532.500000	16.852000  
533.000000	16.238000  
533.500000	16.567000  
534.000000	15.904000  
534.500000	15.805000  
535.000000	15.927000  
535.500000	15.760000  
536.000000	15.453000  
536.500000	15.133000  
537.000000	15.247000  
537.500000	15.499000  
538.000000	15.224000  
538.500000	14.524000  
539.000000	13.978000  
539.500000	13.831000  
540.000000	13.811000  
540.500000	13.786000  
541.000000	13.365000  
541.500000	13.281000  
542.000000	13.045000  
542.500000	12.633000  
543.000000	12.963000  
543.500000	13.203000  
544.000000	12.740000  
544.500000	12.450000  
545.000000	12.260000  
545.500000	12.400000  
546.000000	12.507000  
546.500000	11.956000  
547.000000	11.422000  
547.500000	11.648000  
548.000000	11.464000  
548.500000	11.619000  

