PE FL                   SPECTRUM    ASCII       PEDS        1.60        
  -1
0124SC~2.SP
19/01/24
12:57:19.00
19/01/24
12:57:19.00


548.500000
1









LS45
235.00
10.00
10.00
SCAN
1
16
100
100
0
600
0
1
0
1
7
ON
550 545 
0 0 0
#HDR
-1
-1
#GR
NM
INT 
0.00002384185791015625
0.0
230.000000
0.500000
638
8
160.393000
1.930000
#DATA
230.000000	3.187000   
230.500000	2.555000   
231.000000	2.884000   
231.500000	3.153000   
232.000000	3.804000   
232.500000	4.549000   
233.000000	4.078000   
233.500000	5.878000   
234.000000	6.038000   
234.500000	5.823000   
235.000000	5.460000   
235.500000	7.361000   
236.000000	8.409000   
236.500000	8.272000   
237.000000	8.076000   
237.500000	9.034000   
238.000000	9.289999   
238.500000	9.617000   
239.000000	9.661000   
239.500000	10.263000  
240.000000	11.134000  
240.500000	10.259000  
241.000000	10.122000  
241.500000	10.319000  
242.000000	10.722000  
242.500000	11.017000  
243.000000	9.494999   
243.500000	9.314000   
244.000000	9.044000   
244.500000	8.757999   
245.000000	8.664999   
245.500000	8.246000   
246.000000	8.750999   
246.500000	7.234000   
247.000000	7.150000   
247.500000	6.931000   
248.000000	7.425000   
248.500000	6.707000   
249.000000	6.567000   
249.500000	6.071000   
250.000000	6.322000   
250.500000	6.138000   
251.000000	6.218000   
251.500000	6.161000   
252.000000	6.242000   
252.500000	6.099000   
253.000000	6.495000   
253.500000	7.106000   
254.000000	7.312000   
254.500000	8.262000   
255.000000	8.397000   
255.500000	8.968000   
256.000000	8.765000   
256.500000	8.657000   
257.000000	8.643000   
257.500000	9.271000   
258.000000	10.215000  
258.500000	10.120000  
259.000000	9.410000   
259.500000	10.894000  
260.000000	9.795000   
260.500000	9.445000   
261.000000	9.831000   
261.500000	10.123000  
262.000000	9.827000   
262.500000	9.090999   
263.000000	9.851000   
263.500000	9.487000   
264.000000	8.733000   
264.500000	8.622999   
265.000000	8.234000   
265.500000	7.968000   
266.000000	7.478000   
266.500000	6.847000   
267.000000	7.143000   
267.500000	6.790000   
268.000000	5.973000   
268.500000	6.028000   
269.000000	4.899000   
269.500000	4.133000   
270.000000	4.607000   
270.500000	4.041000   
271.000000	4.330000   
271.500000	3.525000   
272.000000	3.305000   
272.500000	3.492000   
273.000000	3.064000   
273.500000	2.892000   
274.000000	2.458000   
274.500000	2.513000   
275.000000	2.690000   
275.500000	1.930000   
276.000000	2.206000   
276.500000	2.531000   
277.000000	2.261000   
277.500000	2.100000   
278.000000	2.234000   
278.500000	2.459000   
279.000000	2.300000   
279.500000	2.126000   
280.000000	2.616000   
280.500000	2.367000   
281.000000	2.090000   
281.500000	2.204000   
282.000000	2.035000   
282.500000	2.322000   
283.000000	2.539000   
283.500000	2.122000   
284.000000	2.319000   
284.500000	2.784000   
285.000000	2.941000   
285.500000	2.802000   
286.000000	3.210000   
286.500000	2.763000   
287.000000	3.039000   
287.500000	3.090000   
288.000000	2.911000   
288.500000	3.468000   
289.000000	3.330000   
289.500000	3.413000   
290.000000	3.542000   
290.500000	3.550000   
291.000000	2.951000   
291.500000	3.334000   
292.000000	3.712000   
292.500000	4.252000   
293.000000	3.941000   
293.500000	4.148000   
294.000000	4.230000   
294.500000	4.487000   
295.000000	4.470000   
295.500000	4.691000   
296.000000	4.953000   
296.500000	4.416000   
297.000000	4.392000   
297.500000	4.677000   
298.000000	4.079000   
298.500000	4.667000   
299.000000	4.909000   
299.500000	4.853000   
300.000000	5.543000   
300.500000	5.802000   
301.000000	6.037000   
301.500000	5.681000   
302.000000	5.402000   
302.500000	5.871000   
303.000000	6.181000   
303.500000	5.525000   
304.000000	6.904000   
304.500000	7.314000   
305.000000	6.500000   
305.500000	6.050000   
306.000000	6.544000   
306.500000	6.500000   
307.000000	7.302000   
307.500000	7.758000   
308.000000	7.679000   
308.500000	7.143000   
309.000000	7.718000   
309.500000	7.433000   
310.000000	7.393000   
310.500000	8.015000   
311.000000	8.614000   
311.500000	8.093999   
312.000000	7.671000   
312.500000	8.544000   
313.000000	9.202000   
313.500000	8.632000   
314.000000	9.297000   
314.500000	8.492000   
315.000000	9.183000   
315.500000	9.656000   
316.000000	9.560000   
316.500000	10.263000  
317.000000	10.192000  
317.500000	10.688000  
318.000000	11.611000  
318.500000	11.129000  
319.000000	10.888000  
319.500000	11.589000  
320.000000	11.049000  
320.500000	11.695000  
321.000000	11.626000  
321.500000	12.271000  
322.000000	13.491000  
322.500000	13.081000  
323.000000	13.148000  
323.500000	13.937000  
324.000000	14.051000  
324.500000	13.435000  
325.000000	13.686000  
325.500000	14.682000  
326.000000	15.819000  
326.500000	16.460000  
327.000000	17.403000  
327.500000	17.245000  
328.000000	17.762000  
328.500000	17.229000  
329.000000	17.620000  
329.500000	17.621000  
330.000000	18.920000  
330.500000	18.742000  
331.000000	17.966000  
331.500000	18.675000  
332.000000	19.980000  
332.500000	20.744000  
333.000000	20.721000  
333.500000	20.349000  
334.000000	21.949000  
334.500000	22.341000  
335.000000	22.386000  
335.500000	22.824000  
336.000000	21.950000  
336.500000	24.143000  
337.000000	23.700000  
337.500000	23.237000  
338.000000	23.398000  
338.500000	25.557000  
339.000000	24.992000  
339.500000	25.226000  
340.000000	25.797000  
340.500000	25.306000  
341.000000	24.232000  
341.500000	24.444000  
342.000000	26.322000  
342.500000	26.649000  
343.000000	24.717000  
343.500000	25.977000  
344.000000	27.058000  
344.500000	26.914000  
345.000000	27.635000  
345.500000	26.536000  
346.000000	28.293000  
346.500000	28.254000  
347.000000	28.007000  
347.500000	29.246000  
348.000000	27.571000  
348.500000	27.421000  
349.000000	28.967000  
349.500000	31.350000  
350.000000	30.511000  
350.500000	29.396000  
351.000000	30.993000  
351.500000	29.340000  
352.000000	29.788000  
352.500000	29.375000  
353.000000	30.750000  
353.500000	29.958000  
354.000000	30.243000  
354.500000	31.178000  
355.000000	31.025000  
355.500000	30.855000  
356.000000	30.829000  
356.500000	30.943000  
357.000000	31.173000  
357.500000	31.283000  
358.000000	30.235000  
358.500000	31.067000  
359.000000	30.310000  
359.500000	30.711000  
360.000000	30.315000  
360.500000	30.572000  
361.000000	31.510000  
361.500000	29.383000  
362.000000	30.199000  
362.500000	30.253000  
363.000000	31.146000  
363.500000	29.898000  
364.000000	30.755000  
364.500000	31.120000  
365.000000	31.672000  
365.500000	31.434000  
366.000000	30.604000  
366.500000	30.507000  
367.000000	29.966000  
367.500000	30.650000  
368.000000	32.329000  
368.500000	31.164000  
369.000000	30.525000  
369.500000	30.902000  
370.000000	29.557000  
370.500000	30.638000  
371.000000	29.934000  
371.500000	29.660000  
372.000000	30.689000  
372.500000	30.647000  
373.000000	29.119000  
373.500000	29.764000  
374.000000	30.330000  
374.500000	31.241000  
375.000000	30.497000  
375.500000	29.697000  
376.000000	28.114000  
376.500000	30.176000  
377.000000	30.409000  
377.500000	28.592000  
378.000000	30.405000  
378.500000	29.793000  
379.000000	32.128000  
379.500000	31.586000  
380.000000	30.454000  
380.500000	31.444000  
381.000000	31.394000  
381.500000	32.167000  
382.000000	31.105000  
382.500000	30.998000  
383.000000	30.509000  
383.500000	29.042000  
384.000000	30.578000  
384.500000	28.504000  
385.000000	28.887000  
385.500000	28.775000  
386.000000	28.381000  
386.500000	28.021000  
387.000000	28.447000  
387.500000	30.140000  
388.000000	29.065000  
388.500000	28.214000  
389.000000	27.425000  
389.500000	27.061000  
390.000000	27.391000  
390.500000	28.761000  
391.000000	29.213000  
391.500000	28.273000  
392.000000	27.456000  
392.500000	27.469000  
393.000000	28.175000  
393.500000	26.697000  
394.000000	25.622000  
394.500000	26.555000  
395.000000	27.121000  
395.500000	26.740000  
396.000000	26.791000  
396.500000	28.264000  
397.000000	27.775000  
397.500000	27.231000  
398.000000	27.596000  
398.500000	25.032000  
399.000000	26.929000  
399.500000	25.654000  
400.000000	24.446000  
400.500000	25.478000  
401.000000	25.936000  
401.500000	27.615000  
402.000000	25.535000  
402.500000	26.128000  
403.000000	26.121000  
403.500000	25.817000  
404.000000	25.754000  
404.500000	25.816000  
405.000000	26.368000  
405.500000	26.678000  
406.000000	25.810000  
406.500000	25.956000  
407.000000	25.464000  
407.500000	24.204000  
408.000000	24.356000  
408.500000	25.607000  
409.000000	25.701000  
409.500000	24.856000  
410.000000	26.176000  
410.500000	25.382000  
411.000000	24.383000  
411.500000	24.329000  
412.000000	26.015000  
412.500000	24.844000  
413.000000	25.970000  
413.500000	23.653000  
414.000000	23.954000  
414.500000	23.523000  
415.000000	23.942000  
415.500000	24.467000  
416.000000	24.539000  
416.500000	23.863000  
417.000000	24.229000  
417.500000	23.241000  
418.000000	23.507000  
418.500000	24.740000  
419.000000	21.823000  
419.500000	24.054000  
420.000000	23.245000  
420.500000	23.042000  
421.000000	22.966000  
421.500000	23.002000  
422.000000	21.465000  
422.500000	24.057000  
423.000000	23.572000  
423.500000	22.152000  
424.000000	23.610000  
424.500000	22.282000  
425.000000	22.687000  
425.500000	23.529000  
426.000000	23.226000  
426.500000	21.546000  
427.000000	22.129000  
427.500000	21.359000  
428.000000	21.898000  
428.500000	22.718000  
429.000000	22.551000  
429.500000	21.289000  
430.000000	21.152000  
430.500000	22.069000  
431.000000	21.414000  
431.500000	20.802000  
432.000000	21.787000  
432.500000	23.232000  
433.000000	20.643000  
433.500000	20.343000  
434.000000	21.638000  
434.500000	20.864000  
435.000000	21.069000  
435.500000	21.410000  
436.000000	21.896000  
436.500000	21.932000  
437.000000	21.600000  
437.500000	21.225000  
438.000000	22.268000  
438.500000	22.117000  
439.000000	22.042000  
439.500000	20.221000  
440.000000	22.537000  
440.500000	23.329000  
441.000000	22.949000  
441.500000	21.897000  
442.000000	21.669000  
442.500000	22.233000  
443.000000	21.891000  
443.500000	22.208000  
444.000000	21.699000  
444.500000	21.952000  
445.000000	21.358000  
445.500000	21.594000  
446.000000	21.544000  
446.500000	20.486000  
447.000000	19.579000  
447.500000	20.754000  
448.000000	20.943000  
448.500000	21.498000  
449.000000	21.329000  
449.500000	20.023000  
450.000000	22.375000  
450.500000	21.504000  
451.000000	20.854000  
451.500000	20.674000  
452.000000	20.343000  
452.500000	20.997000  
453.000000	21.613000  
453.500000	21.726000  
454.000000	20.695000  
454.500000	21.942000  
455.000000	22.336000  
455.500000	21.057000  
456.000000	22.334000  
456.500000	21.145000  
457.000000	22.774000  
457.500000	22.954000  
458.000000	22.199000  
458.500000	23.204000  
459.000000	21.158000  
459.500000	20.630000  
460.000000	21.102000  
460.500000	22.079000  
461.000000	22.080000  
461.500000	23.876000  
462.000000	23.731000  
462.500000	23.825000  
463.000000	24.335000  
463.500000	24.002000  
464.000000	26.149000  
464.500000	27.287000  
465.000000	28.681000  
465.500000	31.086000  
466.000000	33.127000  
466.500000	34.178000  
467.000000	35.995000  
467.500000	35.566000  
468.000000	40.434000  
468.500000	42.475000  
469.000000	43.768000  
469.500000	45.320000  
470.000000	49.246000  
470.500000	52.093000  
471.000000	55.701000  
471.500000	61.115000  
472.000000	67.379000  
472.500000	70.027000  
473.000000	76.397000  
473.500000	81.477000  
474.000000	87.043000  
474.500000	92.902000  
475.000000	99.608000  
475.500000	104.256000 
476.000000	110.686000 
476.500000	112.667000 
477.000000	119.539000 
477.500000	129.867000 
478.000000	132.435000 
478.500000	137.661000 
479.000000	143.276000 
479.500000	147.487000 
480.000000	148.756000 
480.500000	153.833000 
481.000000	158.874000 
481.500000	153.930000 
482.000000	158.685000 
482.500000	160.393000 
483.000000	156.673000 
483.500000	152.138000 
484.000000	147.731000 
484.500000	152.652000 
485.000000	145.616000 
485.500000	140.249000 
486.000000	142.734000 
486.500000	133.666000 
487.000000	130.641000 
487.500000	121.494000 
488.000000	117.151000 
488.500000	110.829000 
489.000000	101.825000 
489.500000	95.779000  
490.000000	88.043000  
490.500000	84.127000  
491.000000	78.039000  
491.500000	70.530000  
492.000000	64.697000  
492.500000	59.455000  
493.000000	56.685000  
493.500000	50.500000  
494.000000	47.362000  
494.500000	41.766000  
495.000000	38.270000  
495.500000	34.689000  
496.000000	32.280000  
496.500000	29.863000  
497.000000	29.261000  
497.500000	27.485000  
498.000000	27.761000  
498.500000	26.177000  
499.000000	25.984000  
499.500000	24.580000  
500.000000	24.008000  
500.500000	24.523000  
501.000000	24.471000  
501.500000	24.169000  
502.000000	24.330000  
502.500000	25.528000  
503.000000	25.879000  
503.500000	24.954000  
504.000000	24.720000  
504.500000	25.701000  
505.000000	26.307000  
505.500000	25.141000  
506.000000	25.564000  
506.500000	27.222000  
507.000000	28.015000  
507.500000	27.106000  
508.000000	26.541000  
508.500000	28.891000  
509.000000	29.781000  
509.500000	28.900000  
510.000000	30.172000  
510.500000	31.680000  
511.000000	31.024000  
511.500000	31.919000  
512.000000	33.831000  
512.500000	34.804000  
513.000000	36.080000  
513.500000	35.759000  
514.000000	36.756000  
514.500000	38.516000  
515.000000	38.503000  
515.500000	38.542000  
516.000000	39.128000  
516.500000	41.392000  
517.000000	42.744000  
517.500000	41.439000  
518.000000	44.198000  
518.500000	43.030000  
519.000000	44.335000  
519.500000	43.577000  
520.000000	43.841000  
520.500000	43.668000  
521.000000	46.645000  
521.500000	45.189000  
522.000000	44.277000  
522.500000	43.649000  
523.000000	43.744000  
523.500000	43.420000  
524.000000	43.071000  
524.500000	42.204000  
525.000000	42.201000  
525.500000	41.263000  
526.000000	38.881000  
526.500000	40.166000  
527.000000	38.589000  
527.500000	38.712000  
528.000000	37.767000  
528.500000	36.660000  
529.000000	35.550000  
529.500000	33.475000  
530.000000	33.276000  
530.500000	30.687000  
531.000000	29.443000  
531.500000	28.656000  
532.000000	28.568000  
532.500000	26.837000  
533.000000	25.709000  
533.500000	22.365000  
534.000000	20.684000  
534.500000	19.583000  
535.000000	21.353000  
535.500000	17.399000  
536.000000	18.931000  
536.500000	15.722000  
537.000000	15.290000  
537.500000	14.397000  
538.000000	14.197000  
538.500000	12.613000  
539.000000	12.136000  
539.500000	12.374000  
540.000000	11.932000  
540.500000	10.315000  
541.000000	9.631000   
541.500000	9.768000   
542.000000	10.891000  
542.500000	9.379000   
543.000000	9.281000   
543.500000	8.903000   
544.000000	8.522000   
544.500000	7.953000   
545.000000	8.337999   
545.500000	8.422000   
546.000000	8.821000   
546.500000	8.029000   
547.000000	7.674000   
547.500000	7.935000   
548.000000	7.177000   
548.500000	7.471000   

