PE FL                   SPECTRUM    ASCII       PEDS        1.60        
  -1
014DF2~1.SP
19/01/24
13:14:40.00
19/01/24
13:14:40.00


548.500000
1









LS45
350.00
10.00
10.00
SCAN
1
16
100
100
0
600
0
1
0
1
7
ON
550 545 
0 0 0
#HDR
-1
-1
#GR
NM
INT 
0.00002384185791015625
0.0
230.000000
0.500000
638
8
999.999000
0.405000
#DATA
230.000000	0.692999   
230.500000	0.405000   
231.000000	0.546000   
231.500000	0.485000   
232.000000	0.524000   
232.500000	0.589000   
233.000000	0.509000   
233.500000	0.557000   
234.000000	0.548000   
234.500000	0.467000   
235.000000	0.578000   
235.500000	0.591000   
236.000000	0.448000   
236.500000	0.549000   
237.000000	0.549000   
237.500000	0.531000   
238.000000	0.592000   
238.500000	0.606000   
239.000000	0.498000   
239.500000	0.462000   
240.000000	0.489000   
240.500000	0.657000   
241.000000	0.431000   
241.500000	0.500000   
242.000000	0.624000   
242.500000	0.576000   
243.000000	0.521000   
243.500000	0.628000   
244.000000	0.625000   
244.500000	0.647000   
245.000000	0.620000   
245.500000	0.618000   
246.000000	0.504000   
246.500000	0.633000   
247.000000	0.585000   
247.500000	0.609000   
248.000000	0.692999   
248.500000	0.647000   
249.000000	0.634000   
249.500000	0.615000   
250.000000	0.618000   
250.500000	0.666000   
251.000000	0.640000   
251.500000	0.679000   
252.000000	0.831000   
252.500000	0.694000   
253.000000	0.689999   
253.500000	0.640000   
254.000000	0.724000   
254.500000	0.677000   
255.000000	0.755000   
255.500000	0.606000   
256.000000	0.609000   
256.500000	0.821000   
257.000000	0.747000   
257.500000	0.808000   
258.000000	0.740000   
258.500000	0.674000   
259.000000	0.749000   
259.500000	0.627000   
260.000000	0.717000   
260.500000	0.759000   
261.000000	0.669000   
261.500000	0.759000   
262.000000	0.770000   
262.500000	0.802000   
263.000000	0.889000   
263.500000	0.800000   
264.000000	0.812000   
264.500000	0.752000   
265.000000	0.755000   
265.500000	0.795000   
266.000000	0.872000   
266.500000	0.989000   
267.000000	1.155000   
267.500000	0.971000   
268.000000	0.892000   
268.500000	0.877000   
269.000000	0.852000   
269.500000	0.990000   
270.000000	1.002000   
270.500000	0.915000   
271.000000	0.758000   
271.500000	0.905000   
272.000000	1.016000   
272.500000	0.907000   
273.000000	0.834000   
273.500000	0.947000   
274.000000	0.956000   
274.500000	0.879000   
275.000000	0.971000   
275.500000	1.060000   
276.000000	1.138000   
276.500000	0.993000   
277.000000	0.964000   
277.500000	0.892000   
278.000000	0.907000   
278.500000	1.007000   
279.000000	1.086000   
279.500000	1.132000   
280.000000	0.989000   
280.500000	0.931000   
281.000000	1.129000   
281.500000	1.138000   
282.000000	0.979000   
282.500000	0.969000   
283.000000	1.139000   
283.500000	1.181000   
284.000000	1.041000   
284.500000	1.081000   
285.000000	1.237000   
285.500000	1.050000   
286.000000	0.935000   
286.500000	1.269000   
287.000000	1.245000   
287.500000	1.384000   
288.000000	1.446000   
288.500000	1.164000   
289.000000	1.187000   
289.500000	1.305000   
290.000000	1.082000   
290.500000	1.271000   
291.000000	1.287000   
291.500000	1.441000   
292.000000	1.485000   
292.500000	1.479000   
293.000000	1.373000   
293.500000	1.339000   
294.000000	1.481000   
294.500000	1.604000   
295.000000	1.658000   
295.500000	1.601000   
296.000000	1.636000   
296.500000	1.724000   
297.000000	1.714000   
297.500000	1.690000   
298.000000	1.829000   
298.500000	1.880000   
299.000000	1.837000   
299.500000	1.836000   
300.000000	1.998000   
300.500000	1.918000   
301.000000	1.873000   
301.500000	2.140000   
302.000000	2.347000   
302.500000	2.193000   
303.000000	2.200000   
303.500000	1.976000   
304.000000	2.286000   
304.500000	2.235000   
305.000000	2.502000   
305.500000	2.532000   
306.000000	2.675000   
306.500000	2.444000   
307.000000	2.579000   
307.500000	2.510000   
308.000000	2.690000   
308.500000	2.811000   
309.000000	3.001000   
309.500000	3.105000   
310.000000	3.276000   
310.500000	3.304000   
311.000000	3.111000   
311.500000	3.369000   
312.000000	3.673000   
312.500000	3.841000   
313.000000	3.878000   
313.500000	4.062000   
314.000000	3.933000   
314.500000	4.169000   
315.000000	4.236000   
315.500000	4.401000   
316.000000	4.440000   
316.500000	4.268000   
317.000000	4.689000   
317.500000	4.676000   
318.000000	5.404000   
318.500000	5.644000   
319.000000	5.929000   
319.500000	6.054000   
320.000000	5.976000   
320.500000	6.059000   
321.000000	5.912000   
321.500000	6.695000   
322.000000	6.805000   
322.500000	6.990000   
323.000000	7.430000   
323.500000	7.807000   
324.000000	8.420999   
324.500000	8.510000   
325.000000	9.356999   
325.500000	9.348000   
326.000000	10.566000  
326.500000	11.655000  
327.000000	13.341000  
327.500000	15.350000  
328.000000	18.819000  
328.500000	23.149000  
329.000000	30.856000  
329.500000	39.160000  
330.000000	49.935000  
330.500000	63.444000  
331.000000	78.802000  
331.500000	100.566000 
332.000000	123.430000 
332.500000	154.321000 
333.000000	192.362000 
333.500000	227.800000 
334.000000	265.582000 
334.500000	318.443000 
335.000000	426.351000 
335.500000	435.367000 
336.000000	559.579000 
336.500000	570.999000 
337.000000	720.659000 
337.500000	731.139000 
338.000000	874.045000 
338.500000	885.287000 
339.000000	999.999000 
339.500000	999.999000 
340.000000	999.999000 
340.500000	999.999000 
341.000000	999.999000 
341.500000	999.999000 
342.000000	999.999000 
342.500000	999.999000 
343.000000	999.999000 
343.500000	999.999000 
344.000000	999.999000 
344.500000	999.999000 
345.000000	999.999000 
345.500000	999.999000 
346.000000	999.999000 
346.500000	999.999000 
347.000000	999.999000 
347.500000	999.999000 
348.000000	999.999000 
348.500000	999.999000 
349.000000	999.999000 
349.500000	999.999000 
350.000000	999.999000 
350.500000	999.999000 
351.000000	999.999000 
351.500000	999.999000 
352.000000	999.999000 
352.500000	999.999000 
353.000000	999.999000 
353.500000	969.131999 
354.000000	884.215000 
354.500000	807.475000 
355.000000	704.280000 
355.500000	691.968000 
356.000000	560.794000 
356.500000	550.116000 
357.000000	431.718000 
357.500000	422.819000 
358.000000	374.240000 
358.500000	313.311000 
359.000000	267.289000 
359.500000	221.349000 
360.000000	191.504000 
360.500000	155.388000 
361.000000	128.427000 
361.500000	103.659000 
362.000000	86.869000  
362.500000	69.947999  
363.000000	60.275000  
363.500000	47.743000  
364.000000	41.495000  
364.500000	35.453000  
365.000000	31.055000  
365.500000	28.227000  
366.000000	26.240000  
366.500000	24.839000  
367.000000	24.275000  
367.500000	24.320000  
368.000000	24.231000  
368.500000	23.214000  
369.000000	23.518000  
369.500000	23.739000  
370.000000	24.634000  
370.500000	24.442000  
371.000000	25.495000  
371.500000	25.147000  
372.000000	26.145000  
372.500000	25.696000  
373.000000	27.371000  
373.500000	28.754000  
374.000000	29.040000  
374.500000	29.846000  
375.000000	30.030000  
375.500000	31.462000  
376.000000	32.014000  
376.500000	32.954000  
377.000000	33.576000  
377.500000	35.710000  
378.000000	37.441000  
378.500000	38.832000  
379.000000	40.694000  
379.500000	43.331000  
380.000000	45.498000  
380.500000	45.661000  
381.000000	49.098000  
381.500000	50.604000  
382.000000	54.108000  
382.500000	54.857000  
383.000000	57.745000  
383.500000	59.202000  
384.000000	62.409000  
384.500000	64.456999  
385.000000	68.327000  
385.500000	70.985000  
386.000000	73.804000  
386.500000	76.721000  
387.000000	79.048000  
387.500000	80.999000  
388.000000	84.016000  
388.500000	88.099000  
389.000000	89.030000  
389.500000	89.876000  
390.000000	92.137000  
390.500000	94.604000  
391.000000	96.327000  
391.500000	97.627000  
392.000000	98.544000  
392.500000	100.098000 
393.000000	101.433000 
393.500000	101.482000 
394.000000	101.502000 
394.500000	101.987000 
395.000000	100.116000 
395.500000	101.701000 
396.000000	101.543000 
396.500000	100.049000 
397.000000	100.140000 
397.500000	98.529000  
398.000000	98.289000  
398.500000	96.780000  
399.000000	97.405000  
399.500000	92.920000  
400.000000	91.729000  
400.500000	90.785000  
401.000000	90.682000  
401.500000	87.498000  
402.000000	86.622000  
402.500000	85.117999  
403.000000	84.271000  
403.500000	81.528000  
404.000000	81.343000  
404.500000	78.458000  
405.000000	77.345000  
405.500000	78.162000  
406.000000	76.297000  
406.500000	75.305000  
407.000000	74.630000  
407.500000	74.056000  
408.000000	72.535000  
408.500000	73.081000  
409.000000	73.309000  
409.500000	71.527000  
410.000000	70.776000  
410.500000	69.765000  
411.000000	69.022000  
411.500000	69.526000  
412.000000	70.449000  
412.500000	70.638000  
413.000000	71.084000  
413.500000	70.861999  
414.000000	71.075000  
414.500000	71.005000  
415.000000	72.108000  
415.500000	71.462000  
416.000000	72.512000  
416.500000	71.422000  
417.000000	71.912000  
417.500000	72.446000  
418.000000	74.206999  
418.500000	72.327000  
419.000000	73.837000  
419.500000	72.739999  
420.000000	72.303000  
420.500000	73.946000  
421.000000	73.420000  
421.500000	74.892000  
422.000000	75.166000  
422.500000	75.095000  
423.000000	74.599999  
423.500000	76.155000  
424.000000	75.751000  
424.500000	75.498000  
425.000000	76.706000  
425.500000	77.374000  
426.000000	77.812000  
426.500000	76.768000  
427.000000	76.777000  
427.500000	78.287000  
428.000000	78.604000  
428.500000	77.801000  
429.000000	77.843999  
429.500000	78.382000  
430.000000	79.458000  
430.500000	78.313999  
431.000000	78.453999  
431.500000	78.227999  
432.000000	77.943000  
432.500000	78.436000  
433.000000	79.218999  
433.500000	78.295000  
434.000000	80.642000  
434.500000	82.584000  
435.000000	81.360000  
435.500000	80.099000  
436.000000	80.867000  
436.500000	80.336000  
437.000000	79.883000  
437.500000	80.763000  
438.000000	80.558000  
438.500000	79.535000  
439.000000	81.114999  
439.500000	79.992999  
440.000000	81.738000  
440.500000	80.297000  
441.000000	80.245000  
441.500000	80.578999  
442.000000	80.259000  
442.500000	79.825000  
443.000000	79.900000  
443.500000	80.182000  
444.000000	78.288000  
444.500000	78.625000  
445.000000	78.380000  
445.500000	79.639000  
446.000000	80.399000  
446.500000	77.870000  
447.000000	78.639000  
447.500000	77.763000  
448.000000	77.849000  
448.500000	76.973000  
449.000000	77.191999  
449.500000	76.828000  
450.000000	75.578000  
450.500000	75.042000  
451.000000	75.181000  
451.500000	76.665000  
452.000000	76.644000  
452.500000	74.108000  
453.000000	75.296000  
453.500000	73.127000  
454.000000	71.715000  
454.500000	72.571000  
455.000000	73.290000  
455.500000	72.102999  
456.000000	70.620000  
456.500000	72.236000  
457.000000	70.521000  
457.500000	69.744000  
458.000000	69.792000  
458.500000	68.880000  
459.000000	69.416000  
459.500000	68.398000  
460.000000	68.121000  
460.500000	68.947999  
461.000000	67.417000  
461.500000	65.555000  
462.000000	66.371000  
462.500000	65.946000  
463.000000	65.872000  
463.500000	66.202000  
464.000000	64.730999  
464.500000	63.663000  
465.000000	62.785000  
465.500000	62.529000  
466.000000	61.505000  
466.500000	61.404000  
467.000000	62.240000  
467.500000	61.552000  
468.000000	59.054000  
468.500000	59.450000  
469.000000	57.902000  
469.500000	58.853000  
470.000000	58.174000  
470.500000	58.653000  
471.000000	58.097000  
471.500000	57.900000  
472.000000	55.118000  
472.500000	54.811000  
473.000000	55.556000  
473.500000	54.798000  
474.000000	55.633000  
474.500000	55.432000  
475.000000	54.551000  
475.500000	53.971000  
476.000000	53.427000  
476.500000	53.914000  
477.000000	52.476000  
477.500000	53.684000  
478.000000	52.512000  
478.500000	53.563000  
479.000000	52.188000  
479.500000	50.503000  
480.000000	50.918000  
480.500000	51.152000  
481.000000	50.637000  
481.500000	49.747000  
482.000000	49.693000  
482.500000	49.992000  
483.000000	47.962000  
483.500000	49.547000  
484.000000	48.838000  
484.500000	48.165000  
485.000000	47.589000  
485.500000	47.135000  
486.000000	47.632000  
486.500000	46.493000  
487.000000	45.419000  
487.500000	45.472000  
488.000000	45.866000  
488.500000	44.959000  
489.000000	44.403000  
489.500000	44.988000  
490.000000	43.949000  
490.500000	43.537000  
491.000000	42.830000  
491.500000	43.182000  
492.000000	41.811000  
492.500000	41.644000  
493.000000	41.386000  
493.500000	40.507000  
494.000000	41.298000  
494.500000	40.442000  
495.000000	41.024000  
495.500000	41.208000  
496.000000	39.904000  
496.500000	38.955000  
497.000000	38.813000  
497.500000	39.085000  
498.000000	37.957000  
498.500000	38.414000  
499.000000	37.189000  
499.500000	35.787000  
500.000000	36.941000  
500.500000	35.493000  
501.000000	36.137000  
501.500000	35.380000  
502.000000	35.349000  
502.500000	35.220000  
503.000000	34.167000  
503.500000	34.761000  
504.000000	35.424000  
504.500000	33.684000  
505.000000	32.572000  
505.500000	32.720000  
506.000000	33.112000  
506.500000	33.332000  
507.000000	32.336000  
507.500000	32.310000  
508.000000	31.843000  
508.500000	31.971000  
509.000000	31.291000  
509.500000	30.996000  
510.000000	31.233000  
510.500000	29.343000  
511.000000	28.840000  
511.500000	29.930000  
512.000000	29.598000  
512.500000	27.985000  
513.000000	28.382000  
513.500000	29.213000  
514.000000	29.635000  
514.500000	27.993000  
515.000000	27.090000  
515.500000	27.391000  
516.000000	27.393000  
516.500000	27.721000  
517.000000	26.405000  
517.500000	25.363000  
518.000000	26.555000  
518.500000	25.859000  
519.000000	24.862000  
519.500000	25.047000  
520.000000	25.034000  
520.500000	25.795000  
521.000000	24.846000  
521.500000	24.765000  
522.000000	23.682000  
522.500000	22.656000  
523.000000	23.249000  
523.500000	22.239000  
524.000000	22.403000  
524.500000	22.331000  
525.000000	22.137000  
525.500000	22.111000  
526.000000	20.837000  
526.500000	21.291000  
527.000000	21.266000  
527.500000	21.677000  
528.000000	20.770000  
528.500000	20.073000  
529.000000	19.738000  
529.500000	20.462000  
530.000000	20.313000  
530.500000	19.612000  
531.000000	19.466000  
531.500000	19.336000  
532.000000	19.310000  
532.500000	18.347000  
533.000000	17.994000  
533.500000	17.670000  
534.000000	17.385000  
534.500000	16.709000  
535.000000	16.121000  
535.500000	17.008000  
536.000000	16.503000  
536.500000	15.857000  
537.000000	16.536000  
537.500000	16.172000  
538.000000	15.847000  
538.500000	15.207000  
539.000000	15.318000  
539.500000	15.119000  
540.000000	14.438000  
540.500000	14.870000  
541.000000	14.555000  
541.500000	14.398000  
542.000000	13.812000  
542.500000	13.310000  
543.000000	13.369000  
543.500000	13.579000  
544.000000	13.316000  
544.500000	13.217000  
545.000000	13.441000  
545.500000	12.689000  
546.000000	12.558000  
546.500000	12.643000  
547.000000	12.122000  
547.500000	12.231000  
548.000000	12.252000  
548.500000	12.414000  

