PE FL                   SPECTRUM    ASCII       PEDS        1.60        
  -1
015503~1.SP
19/01/24
13:32:45.00
19/01/24
13:32:45.00


548.500000
1









LS45
470.00
10.00
10.00
SCAN
1
16
100
100
0
600
0
1
0
1
7
ON
550 545 
0 0 0
#HDR
-1
-1
#GR
NM
INT 
0.00002384185791015625
0.0
230.000000
0.500000
638
8
792.175000
0.056000
#DATA
230.000000	0.092000   
230.500000	0.125000   
231.000000	0.103000   
231.500000	0.076000   
232.000000	0.124000   
232.500000	0.135000   
233.000000	0.102000   
233.500000	0.097000   
234.000000	0.099000   
234.500000	0.115000   
235.000000	0.131000   
235.500000	0.063000   
236.000000	0.056000   
236.500000	0.077000   
237.000000	0.057000   
237.500000	0.101000   
238.000000	0.133000   
238.500000	0.094000   
239.000000	0.075000   
239.500000	0.070999   
240.000000	0.105000   
240.500000	0.116000   
241.000000	0.066000   
241.500000	0.081000   
242.000000	0.107000   
242.500000	0.089000   
243.000000	0.066000   
243.500000	0.112000   
244.000000	0.113000   
244.500000	0.146000   
245.000000	0.119000   
245.500000	0.089000   
246.000000	0.106000   
246.500000	0.081000   
247.000000	0.061000   
247.500000	0.115000   
248.000000	0.129000   
248.500000	0.105000   
249.000000	0.148000   
249.500000	0.172000   
250.000000	0.129000   
250.500000	0.102000   
251.000000	0.149000   
251.500000	0.149000   
252.000000	0.152000   
252.500000	0.146000   
253.000000	0.130000   
253.500000	0.134000   
254.000000	0.156000   
254.500000	0.151000   
255.000000	0.133000   
255.500000	0.141000   
256.000000	0.161000   
256.500000	0.160000   
257.000000	0.113000   
257.500000	0.159000   
258.000000	0.124000   
258.500000	0.224000   
259.000000	0.179000   
259.500000	0.118000   
260.000000	0.147000   
260.500000	0.176000   
261.000000	0.188000   
261.500000	0.156000   
262.000000	0.236000   
262.500000	0.181000   
263.000000	0.185000   
263.500000	0.130000   
264.000000	0.124000   
264.500000	0.119000   
265.000000	0.144000   
265.500000	0.182000   
266.000000	0.113000   
266.500000	0.117000   
267.000000	0.117000   
267.500000	0.111000   
268.000000	0.104000   
268.500000	0.148000   
269.000000	0.123000   
269.500000	0.138000   
270.000000	0.110000   
270.500000	0.133000   
271.000000	0.117000   
271.500000	0.156000   
272.000000	0.107000   
272.500000	0.150000   
273.000000	0.100000   
273.500000	0.153000   
274.000000	0.129000   
274.500000	0.157000   
275.000000	0.097000   
275.500000	0.116000   
276.000000	0.085999   
276.500000	0.159000   
277.000000	0.140000   
277.500000	0.170000   
278.000000	0.123000   
278.500000	0.128000   
279.000000	0.154000   
279.500000	0.163000   
280.000000	0.100000   
280.500000	0.131000   
281.000000	0.131000   
281.500000	0.133000   
282.000000	0.163000   
282.500000	0.212000   
283.000000	0.134000   
283.500000	0.147000   
284.000000	0.169000   
284.500000	0.184000   
285.000000	0.163000   
285.500000	0.139000   
286.000000	0.130000   
286.500000	0.212000   
287.000000	0.160000   
287.500000	0.190000   
288.000000	0.149000   
288.500000	0.132000   
289.000000	0.215000   
289.500000	0.233000   
290.000000	0.174000   
290.500000	0.192000   
291.000000	0.154000   
291.500000	0.238000   
292.000000	0.220000   
292.500000	0.246000   
293.000000	0.168000   
293.500000	0.179000   
294.000000	0.160000   
294.500000	0.132000   
295.000000	0.244000   
295.500000	0.238000   
296.000000	0.240000   
296.500000	0.250000   
297.000000	0.206000   
297.500000	0.195000   
298.000000	0.238000   
298.500000	0.253000   
299.000000	0.247000   
299.500000	0.223000   
300.000000	0.191000   
300.500000	0.220000   
301.000000	0.222000   
301.500000	0.221000   
302.000000	0.209000   
302.500000	0.252000   
303.000000	0.284000   
303.500000	0.280000   
304.000000	0.240000   
304.500000	0.155000   
305.000000	0.187000   
305.500000	0.206000   
306.000000	0.209000   
306.500000	0.178000   
307.000000	0.255000   
307.500000	0.406000   
308.000000	0.320000   
308.500000	0.249000   
309.000000	0.184000   
309.500000	0.273000   
310.000000	0.331000   
310.500000	0.265000   
311.000000	0.348000   
311.500000	0.258000   
312.000000	0.252000   
312.500000	0.390000   
313.000000	0.326000   
313.500000	0.224000   
314.000000	0.273000   
314.500000	0.344000   
315.000000	0.328000   
315.500000	0.346000   
316.000000	0.298000   
316.500000	0.280000   
317.000000	0.288000   
317.500000	0.271000   
318.000000	0.266000   
318.500000	0.331000   
319.000000	0.366000   
319.500000	0.336000   
320.000000	0.308000   
320.500000	0.341000   
321.000000	0.281000   
321.500000	0.279000   
322.000000	0.308000   
322.500000	0.351000   
323.000000	0.356000   
323.500000	0.426000   
324.000000	0.423000   
324.500000	0.286000   
325.000000	0.299000   
325.500000	0.413000   
326.000000	0.527000   
326.500000	0.464000   
327.000000	0.423000   
327.500000	0.441000   
328.000000	0.561000   
328.500000	0.452000   
329.000000	0.374000   
329.500000	0.471000   
330.000000	0.450000   
330.500000	0.415000   
331.000000	0.430000   
331.500000	0.471000   
332.000000	0.491000   
332.500000	0.541000   
333.000000	0.463000   
333.500000	0.571000   
334.000000	0.544000   
334.500000	0.525000   
335.000000	0.460000   
335.500000	0.489000   
336.000000	0.522000   
336.500000	0.618000   
337.000000	0.473000   
337.500000	0.421000   
338.000000	0.476000   
338.500000	0.461000   
339.000000	0.565999   
339.500000	0.617000   
340.000000	0.497000   
340.500000	0.581000   
341.000000	0.736000   
341.500000	0.567999   
342.000000	0.484000   
342.500000	0.605000   
343.000000	0.513000   
343.500000	0.559000   
344.000000	0.501000   
344.500000	0.505000   
345.000000	0.432000   
345.500000	0.457000   
346.000000	0.535000   
346.500000	0.575000   
347.000000	0.545000   
347.500000	0.514000   
348.000000	0.645000   
348.500000	0.576000   
349.000000	0.553000   
349.500000	0.513000   
350.000000	0.561000   
350.500000	0.670000   
351.000000	0.598000   
351.500000	0.633000   
352.000000	0.512000   
352.500000	0.597000   
353.000000	0.538000   
353.500000	0.583000   
354.000000	0.646000   
354.500000	0.714000   
355.000000	0.663000   
355.500000	0.737000   
356.000000	0.508000   
356.500000	0.624000   
357.000000	0.665000   
357.500000	0.729000   
358.000000	0.560000   
358.500000	0.586000   
359.000000	0.668000   
359.500000	0.527000   
360.000000	0.537000   
360.500000	0.626000   
361.000000	0.624000   
361.500000	0.749000   
362.000000	0.626000   
362.500000	0.609000   
363.000000	0.562999   
363.500000	0.673000   
364.000000	0.705000   
364.500000	0.687999   
365.000000	0.756000   
365.500000	0.709000   
366.000000	0.709000   
366.500000	0.628000   
367.000000	0.629000   
367.500000	0.673000   
368.000000	0.622000   
368.500000	0.651000   
369.000000	0.715000   
369.500000	0.671000   
370.000000	0.754000   
370.500000	0.698000   
371.000000	0.784000   
371.500000	0.731000   
372.000000	0.701000   
372.500000	0.767000   
373.000000	0.746000   
373.500000	0.726000   
374.000000	0.815999   
374.500000	0.753000   
375.000000	0.800000   
375.500000	0.687999   
376.000000	0.655000   
376.500000	0.739000   
377.000000	0.756000   
377.500000	0.779000   
378.000000	0.736000   
378.500000	0.720000   
379.000000	0.772000   
379.500000	0.764000   
380.000000	0.861000   
380.500000	0.783000   
381.000000	0.843000   
381.500000	0.884000   
382.000000	0.760000   
382.500000	0.724000   
383.000000	0.750000   
383.500000	0.810000   
384.000000	0.750000   
384.500000	0.727000   
385.000000	0.697000   
385.500000	0.735000   
386.000000	0.796000   
386.500000	0.837000   
387.000000	1.027000   
387.500000	0.932000   
388.000000	0.828000   
388.500000	0.803000   
389.000000	0.893000   
389.500000	0.918000   
390.000000	0.751000   
390.500000	0.709000   
391.000000	0.781000   
391.500000	0.944000   
392.000000	0.752000   
392.500000	0.714000   
393.000000	0.783000   
393.500000	0.894000   
394.000000	0.732000   
394.500000	0.817999   
395.000000	0.930000   
395.500000	0.847000   
396.000000	0.845000   
396.500000	0.813999   
397.000000	0.880000   
397.500000	0.812999   
398.000000	0.973000   
398.500000	1.042000   
399.000000	0.989000   
399.500000	0.988000   
400.000000	0.985000   
400.500000	1.004000   
401.000000	1.065000   
401.500000	0.999000   
402.000000	1.036000   
402.500000	1.135000   
403.000000	1.243000   
403.500000	1.071000   
404.000000	0.974000   
404.500000	0.957000   
405.000000	1.052000   
405.500000	1.186000   
406.000000	1.204000   
406.500000	1.146000   
407.000000	1.156000   
407.500000	1.045000   
408.000000	1.088000   
408.500000	1.206000   
409.000000	1.304000   
409.500000	1.162000   
410.000000	1.209000   
410.500000	1.254000   
411.000000	1.202000   
411.500000	1.343000   
412.000000	1.305000   
412.500000	1.358000   
413.000000	1.311000   
413.500000	1.548000   
414.000000	1.404000   
414.500000	1.468000   
415.000000	1.426000   
415.500000	1.575000   
416.000000	1.731000   
416.500000	1.668000   
417.000000	1.496000   
417.500000	1.603000   
418.000000	1.694000   
418.500000	1.696000   
419.000000	1.643000   
419.500000	1.626000   
420.000000	1.593000   
420.500000	1.749000   
421.000000	1.983000   
421.500000	1.785000   
422.000000	1.812000   
422.500000	1.954000   
423.000000	1.795000   
423.500000	1.919000   
424.000000	1.932000   
424.500000	1.818000   
425.000000	1.796000   
425.500000	1.869000   
426.000000	1.913000   
426.500000	1.944000   
427.000000	2.080000   
427.500000	1.945000   
428.000000	2.058000   
428.500000	1.944000   
429.000000	2.089000   
429.500000	2.081000   
430.000000	2.252000   
430.500000	1.995000   
431.000000	2.015000   
431.500000	2.039000   
432.000000	2.260000   
432.500000	2.122000   
433.000000	2.136000   
433.500000	2.297000   
434.000000	2.407000   
434.500000	2.629000   
435.000000	2.449000   
435.500000	2.314000   
436.000000	2.546000   
436.500000	2.693000   
437.000000	2.600000   
437.500000	2.619000   
438.000000	2.804000   
438.500000	2.473000   
439.000000	2.575000   
439.500000	2.799000   
440.000000	2.991000   
440.500000	2.965000   
441.000000	3.074000   
441.500000	3.044000   
442.000000	3.161000   
442.500000	3.422000   
443.000000	3.183000   
443.500000	3.324000   
444.000000	3.694000   
444.500000	3.719000   
445.000000	3.790000   
445.500000	3.919000   
446.000000	4.532000   
446.500000	5.362000   
447.000000	6.966000   
447.500000	8.709000   
448.000000	10.740000  
448.500000	14.565000  
449.000000	17.689000  
449.500000	23.592000  
450.000000	29.604000  
450.500000	39.856000  
451.000000	47.432000  
451.500000	58.858000  
452.000000	69.793000  
452.500000	86.596000  
453.000000	103.563000 
453.500000	129.933000 
454.000000	148.895000 
454.500000	175.650000 
455.000000	199.471000 
455.500000	231.376000 
456.000000	258.110000 
456.500000	299.257000 
457.000000	325.304000 
457.500000	362.142000 
458.000000	399.426000 
458.500000	435.380000 
459.000000	471.443000 
459.500000	511.552000 
460.000000	546.124000 
460.500000	573.776000 
461.000000	612.409000 
461.500000	642.516000 
462.000000	675.351000 
462.500000	701.166000 
463.000000	724.886000 
463.500000	739.018000 
464.000000	765.549000 
464.500000	774.903000 
465.000000	790.079000 
465.500000	792.175000 
466.000000	791.684999 
466.500000	790.277000 
467.000000	784.700000 
467.500000	777.160999 
468.000000	757.505000 
468.500000	745.599000 
469.000000	726.332000 
469.500000	707.353000 
470.000000	674.315000 
470.500000	645.526000 
471.000000	606.069000 
471.500000	578.176000 
472.000000	538.398000 
472.500000	505.507000 
473.000000	464.011000 
473.500000	433.143000 
474.000000	396.047000 
474.500000	361.234000 
475.000000	322.071000 
475.500000	285.784000 
476.000000	248.449000 
476.500000	224.675000 
477.000000	197.048000 
477.500000	170.372000 
478.000000	142.183000 
478.500000	119.058000 
479.000000	101.495000 
479.500000	83.711000  
480.000000	70.374000  
480.500000	57.766000  
481.000000	44.960000  
481.500000	36.315000  
482.000000	31.400000  
482.500000	25.259000  
483.000000	19.905000  
483.500000	15.648000  
484.000000	13.036000  
484.500000	10.603000  
485.000000	9.021000   
485.500000	7.921000   
486.000000	6.830000   
486.500000	6.761000   
487.000000	6.685000   
487.500000	6.438000   
488.000000	6.496000   
488.500000	6.070000   
489.000000	6.282000   
489.500000	6.335000   
490.000000	6.051000   
490.500000	6.120000   
491.000000	6.047000   
491.500000	5.727000   
492.000000	6.115000   
492.500000	6.101000   
493.000000	6.149000   
493.500000	6.246000   
494.000000	5.991000   
494.500000	5.943000   
495.000000	6.072000   
495.500000	5.849000   
496.000000	5.987000   
496.500000	5.941000   
497.000000	6.225000   
497.500000	6.106000   
498.000000	5.748000   
498.500000	5.941000   
499.000000	6.052000   
499.500000	6.191000   
500.000000	6.169000   
500.500000	6.272000   
501.000000	6.111000   
501.500000	6.451000   
502.000000	6.187000   
502.500000	6.270000   
503.000000	6.245000   
503.500000	6.286000   
504.000000	6.141000   
504.500000	6.175000   
505.000000	6.411000   
505.500000	6.330000   
506.000000	6.234000   
506.500000	6.106000   
507.000000	6.253000   
507.500000	6.159000   
508.000000	6.365000   
508.500000	6.350000   
509.000000	6.520000   
509.500000	6.485000   
510.000000	6.390000   
510.500000	6.116000   
511.000000	6.320000   
511.500000	6.283000   
512.000000	6.240000   
512.500000	6.062000   
513.000000	6.070000   
513.500000	6.025000   
514.000000	6.464000   
514.500000	6.236000   
515.000000	5.995000   
515.500000	6.216000   
516.000000	6.101000   
516.500000	6.047000   
517.000000	5.931000   
517.500000	5.786000   
518.000000	5.553000   
518.500000	5.673000   
519.000000	5.717000   
519.500000	5.697000   
520.000000	5.900000   
520.500000	5.968000   
521.000000	5.658000   
521.500000	5.811000   
522.000000	5.943000   
522.500000	5.891000   
523.000000	5.798000   
523.500000	5.171000   
524.000000	5.726000   
524.500000	5.412000   
525.000000	5.521000   
525.500000	5.258000   
526.000000	5.470000   
526.500000	5.240000   
527.000000	5.323000   
527.500000	5.317000   
528.000000	5.217000   
528.500000	4.981000   
529.000000	4.746000   
529.500000	5.254000   
530.000000	5.421000   
530.500000	4.804000   
531.000000	4.899000   
531.500000	4.653000   
532.000000	4.638000   
532.500000	4.524000   
533.000000	4.816000   
533.500000	4.577000   
534.000000	4.626000   
534.500000	5.006000   
535.000000	4.630000   
535.500000	4.694000   
536.000000	4.375000   
536.500000	4.495000   
537.000000	4.707000   
537.500000	4.594000   
538.000000	4.675000   
538.500000	4.958000   
539.000000	4.723000   
539.500000	4.707000   
540.000000	4.781000   
540.500000	4.912000   
541.000000	4.821000   
541.500000	4.798000   
542.000000	4.484000   
542.500000	4.754000   
543.000000	4.940000   
543.500000	5.229000   
544.000000	5.230000   
544.500000	5.173000   
545.000000	5.163000   
545.500000	5.099000   
546.000000	5.225000   
546.500000	5.170000   
547.000000	5.219000   
547.500000	4.965000   
548.000000	5.096000   
548.500000	5.222000   

