PE FL                   SPECTRUM    ASCII       PEDS        1.60        
  -1
015103~1.SP
19/01/24
13:25:12.00
19/01/24
13:25:12.00


548.500000
1









LS45
420.00
10.00
10.00
SCAN
1
16
100
100
0
600
0
1
0
1
7
ON
550 545 
0 0 0
#HDR
-1
-1
#GR
NM
INT 
0.00002384185791015625
0.0
230.000000
0.500000
638
8
999.999000
0.168000
#DATA
230.000000	0.292000   
230.500000	0.285000   
231.000000	0.271000   
231.500000	0.316000   
232.000000	0.224000   
232.500000	0.233000   
233.000000	0.309000   
233.500000	0.325000   
234.000000	0.327000   
234.500000	0.322000   
235.000000	0.283000   
235.500000	0.259000   
236.000000	0.262000   
236.500000	0.244000   
237.000000	0.214000   
237.500000	0.276000   
238.000000	0.252000   
238.500000	0.288000   
239.000000	0.277000   
239.500000	0.268000   
240.000000	0.236000   
240.500000	0.321000   
241.000000	0.288000   
241.500000	0.297000   
242.000000	0.265000   
242.500000	0.285000   
243.000000	0.225000   
243.500000	0.274000   
244.000000	0.252000   
244.500000	0.206000   
245.000000	0.186000   
245.500000	0.232000   
246.000000	0.182000   
246.500000	0.242000   
247.000000	0.231000   
247.500000	0.243000   
248.000000	0.292000   
248.500000	0.273000   
249.000000	0.202000   
249.500000	0.261000   
250.000000	0.248000   
250.500000	0.320000   
251.000000	0.255000   
251.500000	0.275000   
252.000000	0.198000   
252.500000	0.255000   
253.000000	0.247000   
253.500000	0.239000   
254.000000	0.255000   
254.500000	0.189000   
255.000000	0.168000   
255.500000	0.235000   
256.000000	0.209000   
256.500000	0.203000   
257.000000	0.205000   
257.500000	0.266000   
258.000000	0.178000   
258.500000	0.228000   
259.000000	0.256000   
259.500000	0.273000   
260.000000	0.210000   
260.500000	0.285000   
261.000000	0.256000   
261.500000	0.271000   
262.000000	0.285000   
262.500000	0.296000   
263.000000	0.239000   
263.500000	0.215000   
264.000000	0.262000   
264.500000	0.256000   
265.000000	0.268000   
265.500000	0.222000   
266.000000	0.272000   
266.500000	0.324000   
267.000000	0.278000   
267.500000	0.189000   
268.000000	0.270000   
268.500000	0.261000   
269.000000	0.320000   
269.500000	0.257000   
270.000000	0.216000   
270.500000	0.246000   
271.000000	0.228000   
271.500000	0.318000   
272.000000	0.244000   
272.500000	0.293000   
273.000000	0.269000   
273.500000	0.264000   
274.000000	0.261000   
274.500000	0.336000   
275.000000	0.267000   
275.500000	0.234000   
276.000000	0.337000   
276.500000	0.275000   
277.000000	0.316000   
277.500000	0.248000   
278.000000	0.273000   
278.500000	0.319000   
279.000000	0.358000   
279.500000	0.341000   
280.000000	0.270000   
280.500000	0.311000   
281.000000	0.298000   
281.500000	0.332000   
282.000000	0.345000   
282.500000	0.317000   
283.000000	0.353000   
283.500000	0.324000   
284.000000	0.387000   
284.500000	0.372000   
285.000000	0.323000   
285.500000	0.338000   
286.000000	0.327000   
286.500000	0.311000   
287.000000	0.322000   
287.500000	0.329000   
288.000000	0.352000   
288.500000	0.277000   
289.000000	0.291000   
289.500000	0.359000   
290.000000	0.397000   
290.500000	0.355000   
291.000000	0.356000   
291.500000	0.391000   
292.000000	0.329000   
292.500000	0.298000   
293.000000	0.326000   
293.500000	0.340000   
294.000000	0.386000   
294.500000	0.369000   
295.000000	0.410000   
295.500000	0.385000   
296.000000	0.276000   
296.500000	0.288000   
297.000000	0.268000   
297.500000	0.306000   
298.000000	0.433000   
298.500000	0.422000   
299.000000	0.384000   
299.500000	0.489000   
300.000000	0.484000   
300.500000	0.453000   
301.000000	0.404000   
301.500000	0.414000   
302.000000	0.495000   
302.500000	0.347000   
303.000000	0.413000   
303.500000	0.360000   
304.000000	0.382000   
304.500000	0.381000   
305.000000	0.405000   
305.500000	0.368000   
306.000000	0.474000   
306.500000	0.463000   
307.000000	0.417000   
307.500000	0.333000   
308.000000	0.352000   
308.500000	0.372000   
309.000000	0.473000   
309.500000	0.495000   
310.000000	0.403000   
310.500000	0.499000   
311.000000	0.507000   
311.500000	0.538000   
312.000000	0.522000   
312.500000	0.429000   
313.000000	0.469000   
313.500000	0.486000   
314.000000	0.547000   
314.500000	0.505000   
315.000000	0.553000   
315.500000	0.498000   
316.000000	0.489000   
316.500000	0.540000   
317.000000	0.512000   
317.500000	0.608000   
318.000000	0.559000   
318.500000	0.504000   
319.000000	0.487000   
319.500000	0.508000   
320.000000	0.569000   
320.500000	0.562000   
321.000000	0.526000   
321.500000	0.600000   
322.000000	0.557000   
322.500000	0.632000   
323.000000	0.564999   
323.500000	0.668000   
324.000000	0.601000   
324.500000	0.522000   
325.000000	0.615000   
325.500000	0.613000   
326.000000	0.709000   
326.500000	0.699000   
327.000000	0.554000   
327.500000	0.643000   
328.000000	0.678000   
328.500000	0.701000   
329.000000	0.654000   
329.500000	0.649000   
330.000000	0.636000   
330.500000	0.695000   
331.000000	0.706000   
331.500000	0.733000   
332.000000	0.734000   
332.500000	0.876000   
333.000000	0.717000   
333.500000	0.639000   
334.000000	0.684000   
334.500000	0.808000   
335.000000	0.807000   
335.500000	0.816999   
336.000000	0.703000   
336.500000	0.773000   
337.000000	0.747000   
337.500000	0.756000   
338.000000	0.845000   
338.500000	0.806000   
339.000000	0.768000   
339.500000	0.781000   
340.000000	0.597000   
340.500000	0.734000   
341.000000	0.809000   
341.500000	0.888000   
342.000000	0.824000   
342.500000	0.781000   
343.000000	0.847000   
343.500000	0.830000   
344.000000	0.844000   
344.500000	0.917000   
345.000000	0.992000   
345.500000	1.001000   
346.000000	0.883000   
346.500000	0.890000   
347.000000	0.992000   
347.500000	0.985000   
348.000000	1.071000   
348.500000	0.882000   
349.000000	0.958000   
349.500000	0.934000   
350.000000	1.046000   
350.500000	1.153000   
351.000000	1.012000   
351.500000	0.948000   
352.000000	0.924000   
352.500000	1.082000   
353.000000	0.914000   
353.500000	0.965000   
354.000000	1.006000   
354.500000	1.180000   
355.000000	1.030000   
355.500000	1.052000   
356.000000	0.996000   
356.500000	1.024000   
357.000000	1.100000   
357.500000	1.193000   
358.000000	1.196000   
358.500000	1.268000   
359.000000	1.420000   
359.500000	1.296000   
360.000000	1.248000   
360.500000	1.292000   
361.000000	1.341000   
361.500000	1.182000   
362.000000	1.292000   
362.500000	1.279000   
363.000000	1.299000   
363.500000	1.456000   
364.000000	1.279000   
364.500000	1.321000   
365.000000	1.578000   
365.500000	1.464000   
366.000000	1.506000   
366.500000	1.589000   
367.000000	1.777000   
367.500000	1.648000   
368.000000	1.496000   
368.500000	1.586000   
369.000000	1.572000   
369.500000	1.778000   
370.000000	1.770000   
370.500000	1.906000   
371.000000	1.954000   
371.500000	1.890000   
372.000000	1.798000   
372.500000	1.918000   
373.000000	1.892000   
373.500000	1.907000   
374.000000	2.035000   
374.500000	2.106000   
375.000000	2.262000   
375.500000	2.046000   
376.000000	2.203000   
376.500000	2.315000   
377.000000	2.291000   
377.500000	2.266000   
378.000000	2.367000   
378.500000	2.446000   
379.000000	2.412000   
379.500000	2.678000   
380.000000	2.766000   
380.500000	2.444000   
381.000000	2.543000   
381.500000	2.796000   
382.000000	2.833000   
382.500000	2.712000   
383.000000	2.921000   
383.500000	3.051000   
384.000000	3.175000   
384.500000	3.095000   
385.000000	3.212000   
385.500000	3.006000   
386.000000	3.199000   
386.500000	3.387000   
387.000000	3.536000   
387.500000	3.697000   
388.000000	3.388000   
388.500000	3.243000   
389.000000	3.493000   
389.500000	3.836000   
390.000000	3.889000   
390.500000	4.155000   
391.000000	4.303000   
391.500000	4.068000   
392.000000	4.067000   
392.500000	4.385000   
393.000000	4.518000   
393.500000	4.612000   
394.000000	4.557000   
394.500000	4.844000   
395.000000	5.104000   
395.500000	5.848000   
396.000000	6.263000   
396.500000	7.510000   
397.000000	8.888000   
397.500000	10.988000  
398.000000	13.410000  
398.500000	17.597000  
399.000000	22.268000  
399.500000	28.604000  
400.000000	36.567000  
400.500000	46.501000  
401.000000	60.176000  
401.500000	72.767000  
402.000000	89.663000  
402.500000	108.332000 
403.000000	134.136000 
403.500000	157.817000 
404.000000	194.754000 
404.500000	222.452000 
405.000000	265.806000 
405.500000	302.834000 
406.000000	350.524000 
406.500000	396.053000 
407.000000	445.201000 
407.500000	497.177000 
408.000000	553.107000 
408.500000	669.296000 
409.000000	680.056000 
409.500000	732.021000 
410.000000	779.860000 
410.500000	836.718000 
411.000000	877.671000 
411.500000	915.588000 
412.000000	960.415000 
412.500000	999.999000 
413.000000	999.999000 
413.500000	999.999000 
414.000000	999.999000 
414.500000	999.999000 
415.000000	999.999000 
415.500000	999.999000 
416.000000	999.999000 
416.500000	999.999000 
417.000000	999.999000 
417.500000	999.999000 
418.000000	999.999000 
418.500000	999.999000 
419.000000	999.999000 
419.500000	999.999000 
420.000000	999.999000 
420.500000	999.999000 
421.000000	999.999000 
421.500000	981.663000 
422.000000	945.602000 
422.500000	892.006000 
423.000000	854.739000 
423.500000	800.502000 
424.000000	744.354000 
424.500000	689.359000 
425.000000	564.258000 
425.500000	554.070000 
426.000000	502.211000 
426.500000	445.997000 
427.000000	390.510000 
427.500000	346.706000 
428.000000	295.991000 
428.500000	246.199000 
429.000000	208.660000 
429.500000	177.406000 
430.000000	140.807000 
430.500000	118.772000 
431.000000	91.321000  
431.500000	73.473000  
432.000000	58.705000  
432.500000	49.345000  
433.000000	37.983000  
433.500000	31.264000  
434.000000	25.148000  
434.500000	22.332000  
435.000000	19.024000  
435.500000	17.773000  
436.000000	16.275000  
436.500000	15.943000  
437.000000	15.879000  
437.500000	15.656000  
438.000000	15.304000  
438.500000	15.575000  
439.000000	15.272000  
439.500000	15.173000  
440.000000	14.625000  
440.500000	15.237000  
441.000000	15.235000  
441.500000	15.849000  
442.000000	15.556000  
442.500000	16.385000  
443.000000	15.862000  
443.500000	15.901000  
444.000000	16.934000  
444.500000	16.328000  
445.000000	16.574000  
445.500000	16.667000  
446.000000	16.751000  
446.500000	16.913000  
447.000000	17.011000  
447.500000	16.345000  
448.000000	16.763000  
448.500000	16.620000  
449.000000	16.742000  
449.500000	17.563000  
450.000000	17.274000  
450.500000	16.921000  
451.000000	17.234000  
451.500000	17.507000  
452.000000	17.229000  
452.500000	16.849000  
453.000000	17.989000  
453.500000	17.490000  
454.000000	17.543000  
454.500000	17.941000  
455.000000	18.430000  
455.500000	17.974000  
456.000000	18.034000  
456.500000	18.194000  
457.000000	18.068000  
457.500000	18.043000  
458.000000	18.013000  
458.500000	17.917000  
459.000000	18.480000  
459.500000	18.537000  
460.000000	18.747000  
460.500000	18.743000  
461.000000	18.833000  
461.500000	18.315000  
462.000000	18.503000  
462.500000	17.939000  
463.000000	19.215000  
463.500000	18.884000  
464.000000	18.635000  
464.500000	18.812000  
465.000000	19.739000  
465.500000	19.929000  
466.000000	19.705000  
466.500000	19.715000  
467.000000	19.730000  
467.500000	20.632000  
468.000000	19.992000  
468.500000	21.094000  
469.000000	21.321000  
469.500000	21.353000  
470.000000	21.486000  
470.500000	22.245000  
471.000000	23.024000  
471.500000	22.504000  
472.000000	22.993000  
472.500000	24.120000  
473.000000	24.060000  
473.500000	24.960000  
474.000000	25.393000  
474.500000	25.890000  
475.000000	27.423000  
475.500000	27.125000  
476.000000	27.977000  
476.500000	28.090000  
477.000000	28.459000  
477.500000	28.383000  
478.000000	29.316000  
478.500000	30.341000  
479.000000	30.590000  
479.500000	31.011000  
480.000000	31.974000  
480.500000	32.669000  
481.000000	32.730000  
481.500000	33.582000  
482.000000	33.489000  
482.500000	33.881000  
483.000000	34.849000  
483.500000	34.311000  
484.000000	35.189000  
484.500000	34.718000  
485.000000	35.092000  
485.500000	35.053000  
486.000000	35.218000  
486.500000	36.199000  
487.000000	34.412000  
487.500000	34.765000  
488.000000	34.257000  
488.500000	34.831000  
489.000000	35.029000  
489.500000	34.320000  
490.000000	34.069000  
490.500000	33.101000  
491.000000	32.967000  
491.500000	32.072000  
492.000000	32.102000  
492.500000	31.958000  
493.000000	31.543000  
493.500000	31.258000  
494.000000	31.045000  
494.500000	29.416000  
495.000000	28.718000  
495.500000	29.387000  
496.000000	29.160000  
496.500000	28.221000  
497.000000	27.843000  
497.500000	27.469000  
498.000000	27.619000  
498.500000	26.738000  
499.000000	26.881000  
499.500000	25.551000  
500.000000	25.497000  
500.500000	25.720000  
501.000000	25.260000  
501.500000	25.713000  
502.000000	25.056000  
502.500000	24.343000  
503.000000	24.789000  
503.500000	24.177000  
504.000000	24.099000  
504.500000	24.289000  
505.000000	24.206000  
505.500000	23.801000  
506.000000	23.956000  
506.500000	23.654000  
507.000000	22.821000  
507.500000	22.811000  
508.000000	23.496000  
508.500000	22.716000  
509.000000	22.670000  
509.500000	22.263000  
510.000000	23.201000  
510.500000	22.566000  
511.000000	22.628000  
511.500000	22.360000  
512.000000	22.261000  
512.500000	21.776000  
513.000000	21.399000  
513.500000	21.425000  
514.000000	21.779000  
514.500000	21.667000  
515.000000	21.217000  
515.500000	20.647000  
516.000000	21.078000  
516.500000	21.109000  
517.000000	20.610000  
517.500000	20.791000  
518.000000	20.095000  
518.500000	20.270000  
519.000000	20.108000  
519.500000	20.728000  
520.000000	20.227000  
520.500000	20.316000  
521.000000	19.994000  
521.500000	19.686000  
522.000000	19.682000  
522.500000	19.226000  
523.000000	19.689000  
523.500000	19.367000  
524.000000	19.145000  
524.500000	19.065000  
525.000000	18.670000  
525.500000	18.854000  
526.000000	18.230000  
526.500000	17.960000  
527.000000	17.877000  
527.500000	17.645000  
528.000000	17.392000  
528.500000	17.637000  
529.000000	17.066000  
529.500000	17.249000  
530.000000	16.892000  
530.500000	16.511000  
531.000000	16.368000  
531.500000	16.585000  
532.000000	16.415000  
532.500000	16.077000  
533.000000	15.428000  
533.500000	16.399000  
534.000000	15.620000  
534.500000	15.357000  
535.000000	15.400000  
535.500000	14.828000  
536.000000	15.049000  
536.500000	14.877000  
537.000000	14.470000  
537.500000	14.381000  
538.000000	14.308000  
538.500000	14.062000  
539.000000	14.188000  
539.500000	13.798000  
540.000000	13.959000  
540.500000	13.269000  
541.000000	13.289000  
541.500000	13.238000  
542.000000	13.121000  
542.500000	12.879000  
543.000000	13.170000  
543.500000	12.210000  
544.000000	11.995000  
544.500000	11.982000  
545.000000	11.760000  
545.500000	11.700000  
546.000000	11.754000  
546.500000	11.105000  
547.000000	11.403000  
547.500000	11.372000  
548.000000	11.390000  
548.500000	10.983000  

