PE FL                   SPECTRUM    ASCII       PEDS        1.60        
  -1
01590B~1.SP
19/01/24
13:38:49.00
19/01/24
13:38:49.00


548.500000
1









LS45
510.00
10.00
10.00
SCAN
1
16
100
100
0
600
0
1
0
1
7
ON
550 545 
0 0 0
#HDR
-1
-1
#GR
NM
INT 
0.00002384185791015625
0.0
230.000000
0.500000
638
8
437.582000
0.000000
#DATA
230.000000	0.000000   
230.500000	0.060000   
231.000000	0.041000   
231.500000	0.077000   
232.000000	0.042000   
232.500000	0.025000   
233.000000	0.063000   
233.500000	0.079000   
234.000000	0.073000   
234.500000	0.073000   
235.000000	0.071999   
235.500000	0.062000   
236.000000	0.028000   
236.500000	0.058000   
237.000000	0.076000   
237.500000	0.078000   
238.000000	0.114000   
238.500000	0.171000   
239.000000	0.160000   
239.500000	0.144000   
240.000000	0.217000   
240.500000	0.358000   
241.000000	0.438000   
241.500000	0.537000   
242.000000	0.674000   
242.500000	0.792000   
243.000000	0.963000   
243.500000	1.071000   
244.000000	1.156000   
244.500000	1.125000   
245.000000	1.344000   
245.500000	1.598000   
246.000000	1.758000   
246.500000	2.069000   
247.000000	2.190000   
247.500000	2.516000   
248.000000	2.408000   
248.500000	2.790000   
249.000000	2.876000   
249.500000	3.143000   
250.000000	3.295000   
250.500000	3.437000   
251.000000	3.559000   
251.500000	3.296000   
252.000000	3.320000   
252.500000	3.598000   
253.000000	3.276000   
253.500000	3.384000   
254.000000	3.485000   
254.500000	3.329000   
255.000000	2.903000   
255.500000	2.952000   
256.000000	2.997000   
256.500000	2.746000   
257.000000	2.387000   
257.500000	2.380000   
258.000000	2.136000   
258.500000	1.952000   
259.000000	1.828000   
259.500000	1.701000   
260.000000	1.480000   
260.500000	1.281000   
261.000000	1.015000   
261.500000	0.970000   
262.000000	0.756000   
262.500000	0.645000   
263.000000	0.538000   
263.500000	0.548000   
264.000000	0.411000   
264.500000	0.443000   
265.000000	0.358000   
265.500000	0.416000   
266.000000	0.402000   
266.500000	0.390000   
267.000000	0.484000   
267.500000	0.440000   
268.000000	0.458000   
268.500000	0.468000   
269.000000	0.585000   
269.500000	0.606000   
270.000000	0.616000   
270.500000	0.669000   
271.000000	0.670000   
271.500000	0.717000   
272.000000	0.799000   
272.500000	0.846000   
273.000000	0.918000   
273.500000	0.944000   
274.000000	0.844000   
274.500000	0.867000   
275.000000	0.887000   
275.500000	1.041000   
276.000000	1.035000   
276.500000	0.996000   
277.000000	1.004000   
277.500000	1.046000   
278.000000	0.991000   
278.500000	0.870000   
279.000000	0.947000   
279.500000	0.835000   
280.000000	0.841000   
280.500000	0.670000   
281.000000	0.559000   
281.500000	0.623000   
282.000000	0.556000   
282.500000	0.539000   
283.000000	0.566999   
283.500000	0.589000   
284.000000	0.584000   
284.500000	0.424000   
285.000000	0.434000   
285.500000	0.390000   
286.000000	0.325000   
286.500000	0.271000   
287.000000	0.335000   
287.500000	0.266000   
288.000000	0.304000   
288.500000	0.271000   
289.000000	0.144000   
289.500000	0.176000   
290.000000	0.224000   
290.500000	0.171000   
291.000000	0.224000   
291.500000	0.191000   
292.000000	0.258000   
292.500000	0.165000   
293.000000	0.181000   
293.500000	0.175000   
294.000000	0.194000   
294.500000	0.164000   
295.000000	0.200000   
295.500000	0.159000   
296.000000	0.202000   
296.500000	0.246000   
297.000000	0.155000   
297.500000	0.179000   
298.000000	0.221000   
298.500000	0.266000   
299.000000	0.270000   
299.500000	0.241000   
300.000000	0.223000   
300.500000	0.292000   
301.000000	0.284000   
301.500000	0.241000   
302.000000	0.237000   
302.500000	0.229000   
303.000000	0.294000   
303.500000	0.303000   
304.000000	0.278000   
304.500000	0.266000   
305.000000	0.225000   
305.500000	0.308000   
306.000000	0.330000   
306.500000	0.365000   
307.000000	0.326000   
307.500000	0.407000   
308.000000	0.358000   
308.500000	0.382000   
309.000000	0.368000   
309.500000	0.369000   
310.000000	0.308000   
310.500000	0.344000   
311.000000	0.530000   
311.500000	0.421000   
312.000000	0.411000   
312.500000	0.445000   
313.000000	0.421000   
313.500000	0.445000   
314.000000	0.365000   
314.500000	0.411000   
315.000000	0.357000   
315.500000	0.425000   
316.000000	0.532000   
316.500000	0.511000   
317.000000	0.525000   
317.500000	0.500000   
318.000000	0.536000   
318.500000	0.457000   
319.000000	0.469000   
319.500000	0.526000   
320.000000	0.551000   
320.500000	0.515000   
321.000000	0.524000   
321.500000	0.614000   
322.000000	0.674000   
322.500000	0.723000   
323.000000	0.486000   
323.500000	0.642000   
324.000000	0.740000   
324.500000	0.713000   
325.000000	0.784000   
325.500000	0.833000   
326.000000	0.724000   
326.500000	0.741000   
327.000000	0.780000   
327.500000	0.634000   
328.000000	0.682000   
328.500000	0.787000   
329.000000	0.766000   
329.500000	0.845000   
330.000000	0.873000   
330.500000	0.884000   
331.000000	0.868000   
331.500000	0.875000   
332.000000	0.960000   
332.500000	1.086000   
333.000000	0.958000   
333.500000	1.002000   
334.000000	1.010000   
334.500000	1.109000   
335.000000	1.017000   
335.500000	0.956000   
336.000000	1.100000   
336.500000	1.130000   
337.000000	1.122000   
337.500000	1.120000   
338.000000	1.188000   
338.500000	1.070000   
339.000000	1.165000   
339.500000	1.184000   
340.000000	0.969000   
340.500000	1.098000   
341.000000	1.162000   
341.500000	1.110000   
342.000000	1.209000   
342.500000	1.289000   
343.000000	1.305000   
343.500000	1.371000   
344.000000	1.355000   
344.500000	1.253000   
345.000000	1.217000   
345.500000	1.266000   
346.000000	1.320000   
346.500000	1.411000   
347.000000	1.222000   
347.500000	1.121000   
348.000000	1.298000   
348.500000	1.426000   
349.000000	1.391000   
349.500000	1.393000   
350.000000	1.433000   
350.500000	1.389000   
351.000000	1.392000   
351.500000	1.419000   
352.000000	1.544000   
352.500000	1.563000   
353.000000	1.625000   
353.500000	1.441000   
354.000000	1.654000   
354.500000	1.553000   
355.000000	1.614000   
355.500000	1.518000   
356.000000	1.628000   
356.500000	1.610000   
357.000000	1.456000   
357.500000	1.660000   
358.000000	1.513000   
358.500000	1.610000   
359.000000	1.705000   
359.500000	1.567000   
360.000000	1.394000   
360.500000	1.384000   
361.000000	1.413000   
361.500000	1.642000   
362.000000	1.708000   
362.500000	1.687000   
363.000000	1.592000   
363.500000	1.569000   
364.000000	1.459000   
364.500000	1.584000   
365.000000	1.649000   
365.500000	1.752000   
366.000000	1.888000   
366.500000	1.590000   
367.000000	1.504000   
367.500000	1.587000   
368.000000	1.517000   
368.500000	1.748000   
369.000000	1.528000   
369.500000	1.350000   
370.000000	1.490000   
370.500000	1.567000   
371.000000	1.601000   
371.500000	1.692000   
372.000000	1.446000   
372.500000	1.547000   
373.000000	1.714000   
373.500000	1.725000   
374.000000	1.531000   
374.500000	1.684000   
375.000000	1.557000   
375.500000	1.705000   
376.000000	1.697000   
376.500000	1.739000   
377.000000	1.562000   
377.500000	1.526000   
378.000000	1.616000   
378.500000	1.741000   
379.000000	1.459000   
379.500000	1.438000   
380.000000	1.480000   
380.500000	1.640000   
381.000000	1.577000   
381.500000	1.530000   
382.000000	1.468000   
382.500000	1.464000   
383.000000	1.562000   
383.500000	1.665000   
384.000000	1.698000   
384.500000	1.619000   
385.000000	1.642000   
385.500000	1.580000   
386.000000	1.541000   
386.500000	1.580000   
387.000000	1.499000   
387.500000	1.457000   
388.000000	1.519000   
388.500000	1.428000   
389.000000	1.442000   
389.500000	1.495000   
390.000000	1.396000   
390.500000	1.336000   
391.000000	1.515000   
391.500000	1.512000   
392.000000	1.429000   
392.500000	1.461000   
393.000000	1.321000   
393.500000	1.494000   
394.000000	1.473000   
394.500000	1.525000   
395.000000	1.545000   
395.500000	1.487000   
396.000000	1.550000   
396.500000	1.541000   
397.000000	1.620000   
397.500000	1.484000   
398.000000	1.418000   
398.500000	1.529000   
399.000000	1.515000   
399.500000	1.495000   
400.000000	1.413000   
400.500000	1.477000   
401.000000	1.485000   
401.500000	1.482000   
402.000000	1.528000   
402.500000	1.741000   
403.000000	1.497000   
403.500000	1.388000   
404.000000	1.569000   
404.500000	1.425000   
405.000000	1.452000   
405.500000	1.573000   
406.000000	1.449000   
406.500000	1.696000   
407.000000	1.646000   
407.500000	1.400000   
408.000000	1.598000   
408.500000	1.641000   
409.000000	1.620000   
409.500000	1.703000   
410.000000	1.514000   
410.500000	1.665000   
411.000000	1.605000   
411.500000	1.403000   
412.000000	1.486000   
412.500000	1.458000   
413.000000	1.486000   
413.500000	1.736000   
414.000000	1.691000   
414.500000	1.595000   
415.000000	1.575000   
415.500000	1.682000   
416.000000	1.658000   
416.500000	1.472000   
417.000000	1.609000   
417.500000	1.515000   
418.000000	1.614000   
418.500000	1.649000   
419.000000	1.616000   
419.500000	1.711000   
420.000000	1.576000   
420.500000	1.765000   
421.000000	1.710000   
421.500000	1.569000   
422.000000	1.725000   
422.500000	1.751000   
423.000000	1.801000   
423.500000	1.749000   
424.000000	1.609000   
424.500000	1.846000   
425.000000	1.905000   
425.500000	1.893000   
426.000000	1.763000   
426.500000	1.602000   
427.000000	1.565000   
427.500000	1.737000   
428.000000	1.836000   
428.500000	1.776000   
429.000000	1.714000   
429.500000	1.819000   
430.000000	1.631000   
430.500000	1.579000   
431.000000	1.696000   
431.500000	1.913000   
432.000000	1.920000   
432.500000	1.962000   
433.000000	1.914000   
433.500000	1.756000   
434.000000	1.994000   
434.500000	2.206000   
435.000000	1.980000   
435.500000	1.861000   
436.000000	1.781000   
436.500000	1.723000   
437.000000	1.858000   
437.500000	1.993000   
438.000000	1.858000   
438.500000	2.094000   
439.000000	2.058000   
439.500000	2.122000   
440.000000	1.966000   
440.500000	2.282000   
441.000000	2.239000   
441.500000	2.278000   
442.000000	2.100000   
442.500000	2.063000   
443.000000	2.205000   
443.500000	2.220000   
444.000000	2.186000   
444.500000	2.040000   
445.000000	2.154000   
445.500000	2.129000   
446.000000	2.250000   
446.500000	2.324000   
447.000000	2.283000   
447.500000	2.008000   
448.000000	2.036000   
448.500000	2.327000   
449.000000	2.338000   
449.500000	2.105000   
450.000000	2.290000   
450.500000	2.515000   
451.000000	2.357000   
451.500000	2.150000   
452.000000	2.235000   
452.500000	2.138000   
453.000000	2.337000   
453.500000	2.248000   
454.000000	2.245000   
454.500000	2.406000   
455.000000	2.157000   
455.500000	2.341000   
456.000000	2.158000   
456.500000	2.457000   
457.000000	2.326000   
457.500000	2.208000   
458.000000	2.359000   
458.500000	2.337000   
459.000000	2.136000   
459.500000	2.085000   
460.000000	2.242000   
460.500000	2.451000   
461.000000	2.438000   
461.500000	2.326000   
462.000000	2.124000   
462.500000	2.165000   
463.000000	2.274000   
463.500000	2.296000   
464.000000	2.197000   
464.500000	2.505000   
465.000000	2.474000   
465.500000	2.528000   
466.000000	2.439000   
466.500000	2.199000   
467.000000	2.053000   
467.500000	2.200000   
468.000000	2.217000   
468.500000	2.309000   
469.000000	2.149000   
469.500000	2.198000   
470.000000	2.478000   
470.500000	2.420000   
471.000000	2.153000   
471.500000	2.396000   
472.000000	2.382000   
472.500000	2.258000   
473.000000	2.643000   
473.500000	2.691000   
474.000000	2.685000   
474.500000	2.472000   
475.000000	2.650000   
475.500000	2.575000   
476.000000	2.484000   
476.500000	2.501000   
477.000000	2.621000   
477.500000	2.657000   
478.000000	2.702000   
478.500000	2.863000   
479.000000	2.586000   
479.500000	2.524000   
480.000000	2.662000   
480.500000	2.850000   
481.000000	3.020000   
481.500000	2.707000   
482.000000	2.784000   
482.500000	2.856000   
483.000000	2.988000   
483.500000	3.004000   
484.000000	3.193000   
484.500000	3.112000   
485.000000	3.269000   
485.500000	3.390000   
486.000000	3.588000   
486.500000	4.011000   
487.000000	4.089000   
487.500000	5.060000   
488.000000	5.926000   
488.500000	7.642000   
489.000000	8.990000   
489.500000	11.229000  
490.000000	13.038000  
490.500000	17.345000  
491.000000	20.970000  
491.500000	27.142000  
492.000000	32.384000  
492.500000	41.167000  
493.000000	48.624000  
493.500000	59.612000  
494.000000	70.848000  
494.500000	83.558000  
495.000000	94.019000  
495.500000	107.807000 
496.000000	121.912000 
496.500000	141.496000 
497.000000	161.636000 
497.500000	180.954000 
498.000000	198.718000 
498.500000	219.353000 
499.000000	238.541000 
499.500000	262.054000 
500.000000	281.511000 
500.500000	302.399000 
501.000000	317.830000 
501.500000	336.765000 
502.000000	356.951000 
502.500000	372.848000 
503.000000	384.446000 
503.500000	395.494000 
504.000000	409.512000 
504.500000	418.298000 
505.000000	428.109000 
505.500000	431.878000 
506.000000	437.582000 
506.500000	435.024000 
507.000000	431.448000 
507.500000	427.666000 
508.000000	421.957000 
508.500000	415.601000 
509.000000	398.906000 
509.500000	385.807000 
510.000000	365.172000 
510.500000	350.786000 
511.000000	333.081000 
511.500000	315.723000 
512.000000	293.967000 
512.500000	274.875000 
513.000000	250.803000 
513.500000	234.127000 
514.000000	207.817000 
514.500000	188.549000 
515.000000	166.031000 
515.500000	150.317000 
516.000000	129.983000 
516.500000	114.437000 
517.000000	95.775000  
517.500000	85.221000  
518.000000	71.438000  
518.500000	61.392000  
519.000000	51.569000  
519.500000	42.681000  
520.000000	34.168000  
520.500000	29.650000  
521.000000	23.304000  
521.500000	18.176000  
522.000000	13.764000  
522.500000	11.767000  
523.000000	8.879000   
523.500000	7.337000   
524.000000	5.480000   
524.500000	4.719000   
525.000000	4.106000   
525.500000	3.487000   
526.000000	3.033000   
526.500000	2.715000   
527.000000	2.783000   
527.500000	2.670000   
528.000000	2.560000   
528.500000	2.807000   
529.000000	2.215000   
529.500000	2.157000   
530.000000	2.352000   
530.500000	2.325000   
531.000000	2.241000   
531.500000	2.182000   
532.000000	2.042000   
532.500000	1.731000   
533.000000	1.833000   
533.500000	1.929000   
534.000000	2.034000   
534.500000	2.124000   
535.000000	2.003000   
535.500000	1.930000   
536.000000	1.992000   
536.500000	1.985000   
537.000000	1.925000   
537.500000	2.037000   
538.000000	1.970000   
538.500000	1.847000   
539.000000	1.845000   
539.500000	1.791000   
540.000000	1.887000   
540.500000	2.021000   
541.000000	1.893000   
541.500000	1.892000   
542.000000	1.996000   
542.500000	1.922000   
543.000000	2.221000   
543.500000	2.266000   
544.000000	2.017000   
544.500000	2.087000   
545.000000	2.281000   
545.500000	2.557000   
546.000000	2.332000   
546.500000	2.539000   
547.000000	2.473000   
547.500000	2.658000   
548.000000	2.838000   
548.500000	2.774000   

