PE FL                   SPECTRUM    ASCII       PEDS        1.60        
  -1
015903~1.SP
19/01/24
13:40:19.00
19/01/24
13:40:19.00


548.500000
1









LS45
520.00
10.00
10.00
SCAN
1
16
100
100
0
600
0
1
0
1
7
ON
550 545 
0 0 0
#HDR
-1
-1
#GR
NM
INT 
0.00002384185791015625
0.0
230.000000
0.500000
638
8
365.012000
0.018000
#DATA
230.000000	0.069000   
230.500000	0.018000   
231.000000	0.021000   
231.500000	0.025000   
232.000000	0.061000   
232.500000	0.063000   
233.000000	0.039000   
233.500000	0.038000   
234.000000	0.069000   
234.500000	0.052000   
235.000000	0.047000   
235.500000	0.047000   
236.000000	0.053000   
236.500000	0.037000   
237.000000	0.047000   
237.500000	0.046000   
238.000000	0.071999   
238.500000	0.090000   
239.000000	0.075000   
239.500000	0.055000   
240.000000	0.073000   
240.500000	0.064000   
241.000000	0.086999   
241.500000	0.032000   
242.000000	0.085000   
242.500000	0.059000   
243.000000	0.101000   
243.500000	0.116000   
244.000000	0.132000   
244.500000	0.238000   
245.000000	0.274000   
245.500000	0.345000   
246.000000	0.480000   
246.500000	0.636000   
247.000000	0.663000   
247.500000	0.835000   
248.000000	1.271000   
248.500000	1.356000   
249.000000	1.886000   
249.500000	2.271000   
250.000000	2.300000   
250.500000	2.544000   
251.000000	2.889000   
251.500000	3.163000   
252.000000	3.517000   
252.500000	3.753000   
253.000000	4.182000   
253.500000	4.157000   
254.000000	4.945000   
254.500000	5.253000   
255.000000	5.039000   
255.500000	5.340000   
256.000000	5.512000   
256.500000	5.456000   
257.000000	6.203000   
257.500000	6.526000   
258.000000	6.047000   
258.500000	6.443000   
259.000000	6.116000   
259.500000	5.800000   
260.000000	5.709000   
260.500000	5.584000   
261.000000	5.147000   
261.500000	4.834000   
262.000000	4.568000   
262.500000	4.549000   
263.000000	4.028000   
263.500000	3.712000   
264.000000	3.580000   
264.500000	3.078000   
265.000000	2.950000   
265.500000	2.498000   
266.000000	2.271000   
266.500000	2.063000   
267.000000	1.828000   
267.500000	1.443000   
268.000000	1.345000   
268.500000	1.172000   
269.000000	0.904000   
269.500000	0.541000   
270.000000	0.464000   
270.500000	0.437000   
271.000000	0.472000   
271.500000	0.373000   
272.000000	0.333000   
272.500000	0.401000   
273.000000	0.395000   
273.500000	0.443000   
274.000000	0.504000   
274.500000	0.643000   
275.000000	0.767000   
275.500000	0.671000   
276.000000	0.692999   
276.500000	0.852000   
277.000000	0.896000   
277.500000	0.965000   
278.000000	1.009000   
278.500000	1.029000   
279.000000	1.102000   
279.500000	1.249000   
280.000000	1.078000   
280.500000	1.191000   
281.000000	1.254000   
281.500000	1.293000   
282.000000	1.340000   
282.500000	1.317000   
283.000000	1.486000   
283.500000	1.464000   
284.000000	1.450000   
284.500000	1.307000   
285.000000	1.254000   
285.500000	1.228000   
286.000000	1.289000   
286.500000	1.369000   
287.000000	1.124000   
287.500000	1.036000   
288.000000	0.949000   
288.500000	1.058000   
289.000000	0.905000   
289.500000	0.830000   
290.000000	0.849000   
290.500000	0.827000   
291.000000	0.703000   
291.500000	0.622000   
292.000000	0.631000   
292.500000	0.705000   
293.000000	0.619000   
293.500000	0.524000   
294.000000	0.523000   
294.500000	0.616000   
295.000000	0.461000   
295.500000	0.420000   
296.000000	0.443000   
296.500000	0.346000   
297.000000	0.346000   
297.500000	0.396000   
298.000000	0.363000   
298.500000	0.493000   
299.000000	0.463000   
299.500000	0.434000   
300.000000	0.442000   
300.500000	0.354000   
301.000000	0.382000   
301.500000	0.441000   
302.000000	0.446000   
302.500000	0.432000   
303.000000	0.480000   
303.500000	0.455000   
304.000000	0.438000   
304.500000	0.430000   
305.000000	0.411000   
305.500000	0.449000   
306.000000	0.470000   
306.500000	0.485000   
307.000000	0.390000   
307.500000	0.492000   
308.000000	0.513000   
308.500000	0.510000   
309.000000	0.454000   
309.500000	0.601000   
310.000000	0.607000   
310.500000	0.562000   
311.000000	0.562000   
311.500000	0.629000   
312.000000	0.656000   
312.500000	0.687999   
313.000000	0.723000   
313.500000	0.795000   
314.000000	0.728000   
314.500000	0.741000   
315.000000	0.602000   
315.500000	0.679000   
316.000000	0.684000   
316.500000	0.786000   
317.000000	0.712000   
317.500000	0.821000   
318.000000	0.823000   
318.500000	0.755000   
319.000000	0.808000   
319.500000	0.812000   
320.000000	0.881000   
320.500000	0.930000   
321.000000	0.897000   
321.500000	0.992000   
322.000000	0.891000   
322.500000	0.936000   
323.000000	0.956000   
323.500000	0.923000   
324.000000	0.883000   
324.500000	1.009000   
325.000000	1.095000   
325.500000	1.073000   
326.000000	1.017000   
326.500000	1.047000   
327.000000	1.006000   
327.500000	1.141000   
328.000000	1.108000   
328.500000	1.028000   
329.000000	1.169000   
329.500000	1.306000   
330.000000	1.221000   
330.500000	1.308000   
331.000000	1.335000   
331.500000	1.420000   
332.000000	1.257000   
332.500000	1.346000   
333.000000	1.343000   
333.500000	1.457000   
334.000000	1.544000   
334.500000	1.462000   
335.000000	1.369000   
335.500000	1.377000   
336.000000	1.476000   
336.500000	1.561000   
337.000000	1.521000   
337.500000	1.447000   
338.000000	1.504000   
338.500000	1.612000   
339.000000	1.756000   
339.500000	1.744000   
340.000000	1.693000   
340.500000	1.555000   
341.000000	1.548000   
341.500000	1.513000   
342.000000	1.600000   
342.500000	1.634000   
343.000000	1.630000   
343.500000	1.593000   
344.000000	1.850000   
344.500000	1.675000   
345.000000	1.612000   
345.500000	1.904000   
346.000000	1.765000   
346.500000	1.748000   
347.000000	1.971000   
347.500000	1.953000   
348.000000	2.068000   
348.500000	2.025000   
349.000000	1.655000   
349.500000	1.712000   
350.000000	1.826000   
350.500000	1.982000   
351.000000	2.004000   
351.500000	1.695000   
352.000000	1.961000   
352.500000	1.779000   
353.000000	1.973000   
353.500000	1.872000   
354.000000	2.256000   
354.500000	2.047000   
355.000000	1.963000   
355.500000	1.825000   
356.000000	1.810000   
356.500000	1.968000   
357.000000	1.893000   
357.500000	1.692000   
358.000000	1.890000   
358.500000	1.919000   
359.000000	1.806000   
359.500000	1.772000   
360.000000	2.002000   
360.500000	1.881000   
361.000000	1.859000   
361.500000	1.834000   
362.000000	1.974000   
362.500000	1.876000   
363.000000	1.788000   
363.500000	1.875000   
364.000000	2.028000   
364.500000	2.005000   
365.000000	1.979000   
365.500000	1.772000   
366.000000	1.894000   
366.500000	1.709000   
367.000000	1.726000   
367.500000	1.959000   
368.000000	1.877000   
368.500000	1.789000   
369.000000	2.035000   
369.500000	1.921000   
370.000000	1.777000   
370.500000	2.017000   
371.000000	1.790000   
371.500000	1.914000   
372.000000	2.004000   
372.500000	2.028000   
373.000000	1.950000   
373.500000	1.901000   
374.000000	1.820000   
374.500000	1.900000   
375.000000	1.936000   
375.500000	1.871000   
376.000000	1.638000   
376.500000	1.827000   
377.000000	1.867000   
377.500000	1.828000   
378.000000	1.694000   
378.500000	1.992000   
379.000000	1.841000   
379.500000	1.705000   
380.000000	1.748000   
380.500000	1.880000   
381.000000	1.886000   
381.500000	1.825000   
382.000000	1.929000   
382.500000	1.787000   
383.000000	1.797000   
383.500000	1.918000   
384.000000	1.901000   
384.500000	1.756000   
385.000000	1.665000   
385.500000	1.823000   
386.000000	1.859000   
386.500000	1.710000   
387.000000	1.930000   
387.500000	2.053000   
388.000000	1.879000   
388.500000	1.763000   
389.000000	1.719000   
389.500000	1.975000   
390.000000	1.961000   
390.500000	1.925000   
391.000000	1.934000   
391.500000	1.873000   
392.000000	1.920000   
392.500000	1.911000   
393.000000	1.803000   
393.500000	1.697000   
394.000000	1.633000   
394.500000	1.759000   
395.000000	1.750000   
395.500000	1.718000   
396.000000	1.754000   
396.500000	1.570000   
397.000000	1.535000   
397.500000	1.603000   
398.000000	1.613000   
398.500000	1.518000   
399.000000	1.638000   
399.500000	1.498000   
400.000000	1.754000   
400.500000	1.561000   
401.000000	1.679000   
401.500000	1.670000   
402.000000	1.769000   
402.500000	1.778000   
403.000000	1.719000   
403.500000	1.828000   
404.000000	1.677000   
404.500000	1.896000   
405.000000	1.678000   
405.500000	1.479000   
406.000000	1.739000   
406.500000	1.739000   
407.000000	1.699000   
407.500000	1.786000   
408.000000	1.588000   
408.500000	1.761000   
409.000000	1.613000   
409.500000	1.666000   
410.000000	1.652000   
410.500000	1.604000   
411.000000	1.585000   
411.500000	1.847000   
412.000000	1.620000   
412.500000	1.995000   
413.000000	1.793000   
413.500000	1.611000   
414.000000	1.801000   
414.500000	1.830000   
415.000000	1.607000   
415.500000	1.741000   
416.000000	1.613000   
416.500000	1.740000   
417.000000	1.890000   
417.500000	1.768000   
418.000000	2.021000   
418.500000	1.847000   
419.000000	1.992000   
419.500000	1.905000   
420.000000	1.801000   
420.500000	2.048000   
421.000000	1.830000   
421.500000	1.631000   
422.000000	1.900000   
422.500000	1.789000   
423.000000	1.993000   
423.500000	1.892000   
424.000000	1.935000   
424.500000	1.969000   
425.000000	2.140000   
425.500000	1.922000   
426.000000	2.074000   
426.500000	2.065000   
427.000000	2.007000   
427.500000	1.885000   
428.000000	2.000000   
428.500000	2.161000   
429.000000	2.196000   
429.500000	2.086000   
430.000000	2.049000   
430.500000	2.108000   
431.000000	2.077000   
431.500000	2.247000   
432.000000	2.194000   
432.500000	2.044000   
433.000000	2.421000   
433.500000	2.394000   
434.000000	2.458000   
434.500000	2.314000   
435.000000	2.133000   
435.500000	2.476000   
436.000000	2.347000   
436.500000	2.140000   
437.000000	2.327000   
437.500000	2.348000   
438.000000	2.301000   
438.500000	2.215000   
439.000000	2.261000   
439.500000	2.326000   
440.000000	2.306000   
440.500000	2.473000   
441.000000	2.045000   
441.500000	2.214000   
442.000000	2.337000   
442.500000	2.580000   
443.000000	2.458000   
443.500000	2.458000   
444.000000	2.340000   
444.500000	2.306000   
445.000000	2.390000   
445.500000	2.448000   
446.000000	2.204000   
446.500000	2.135000   
447.000000	2.286000   
447.500000	2.519000   
448.000000	2.441000   
448.500000	2.380000   
449.000000	2.435000   
449.500000	2.450000   
450.000000	2.239000   
450.500000	2.479000   
451.000000	2.430000   
451.500000	2.424000   
452.000000	2.472000   
452.500000	2.563000   
453.000000	2.547000   
453.500000	2.595000   
454.000000	2.549000   
454.500000	2.652000   
455.000000	2.446000   
455.500000	2.254000   
456.000000	2.480000   
456.500000	2.375000   
457.000000	2.511000   
457.500000	2.363000   
458.000000	2.491000   
458.500000	2.442000   
459.000000	2.426000   
459.500000	2.205000   
460.000000	2.315000   
460.500000	2.583000   
461.000000	2.542000   
461.500000	2.403000   
462.000000	2.149000   
462.500000	2.387000   
463.000000	2.497000   
463.500000	2.605000   
464.000000	2.404000   
464.500000	2.418000   
465.000000	2.387000   
465.500000	2.608000   
466.000000	2.231000   
466.500000	2.396000   
467.000000	2.188000   
467.500000	2.230000   
468.000000	2.219000   
468.500000	2.288000   
469.000000	2.481000   
469.500000	2.399000   
470.000000	2.295000   
470.500000	2.259000   
471.000000	2.235000   
471.500000	2.335000   
472.000000	2.302000   
472.500000	2.462000   
473.000000	2.436000   
473.500000	2.530000   
474.000000	2.644000   
474.500000	2.549000   
475.000000	2.430000   
475.500000	2.529000   
476.000000	2.504000   
476.500000	2.384000   
477.000000	2.625000   
477.500000	2.551000   
478.000000	2.489000   
478.500000	2.428000   
479.000000	2.783000   
479.500000	2.788000   
480.000000	2.707000   
480.500000	2.705000   
481.000000	2.645000   
481.500000	2.582000   
482.000000	2.716000   
482.500000	3.040000   
483.000000	2.951000   
483.500000	2.839000   
484.000000	2.975000   
484.500000	3.143000   
485.000000	2.842000   
485.500000	2.880000   
486.000000	2.768000   
486.500000	2.826000   
487.000000	2.701000   
487.500000	3.028000   
488.000000	3.076000   
488.500000	3.123000   
489.000000	3.049000   
489.500000	2.884000   
490.000000	2.643000   
490.500000	2.838000   
491.000000	3.002000   
491.500000	2.975000   
492.000000	2.918000   
492.500000	2.913000   
493.000000	3.043000   
493.500000	2.953000   
494.000000	3.018000   
494.500000	3.049000   
495.000000	2.969000   
495.500000	3.254000   
496.000000	3.147000   
496.500000	3.270000   
497.000000	3.809000   
497.500000	4.211000   
498.000000	5.092000   
498.500000	6.340000   
499.000000	6.944000   
499.500000	8.895000   
500.000000	10.892000  
500.500000	13.240000  
501.000000	16.429000  
501.500000	21.557000  
502.000000	26.299000  
502.500000	30.999000  
503.000000	36.132000  
503.500000	42.147000  
504.000000	50.544000  
504.500000	58.871000  
505.000000	70.090000  
505.500000	80.503000  
506.000000	91.629000  
506.500000	101.062000 
507.000000	115.984000 
507.500000	133.308000 
508.000000	148.833000 
508.500000	163.299000 
509.000000	185.169000 
509.500000	201.714000 
510.000000	223.408000 
510.500000	236.577000 
511.000000	255.603000 
511.500000	267.910000 
512.000000	286.719000 
512.500000	302.544000 
513.000000	315.190000 
513.500000	328.137000 
514.000000	338.684000 
514.500000	346.444000 
515.000000	357.153000 
515.500000	360.943000 
516.000000	363.859000 
516.500000	364.495000 
517.000000	365.012000 
517.500000	362.999000 
518.000000	354.376000 
518.500000	350.545000 
519.000000	340.468000 
519.500000	330.376000 
520.000000	316.135000 
520.500000	308.739000 
521.000000	291.971000 
521.500000	274.499000 
522.000000	251.506000 
522.500000	236.676000 
523.000000	219.554000 
523.500000	202.079000 
524.000000	181.596000 
524.500000	169.005000 
525.000000	148.597000 
525.500000	132.943000 
526.000000	117.461000 
526.500000	101.004000 
527.000000	86.047000  
527.500000	77.037000  
528.000000	66.658000  
528.500000	55.209000  
529.000000	45.984000  
529.500000	38.265000  
530.000000	31.760000  
530.500000	25.234000  
531.000000	19.941000  
531.500000	16.018000  
532.000000	13.116000  
532.500000	9.987000   
533.000000	7.813000   
533.500000	6.269000   
534.000000	5.172000   
534.500000	4.274000   
535.000000	3.809000   
535.500000	3.461000   
536.000000	2.807000   
536.500000	2.472000   
537.000000	2.551000   
537.500000	2.092000   
538.000000	2.208000   
538.500000	2.096000   
539.000000	2.103000   
539.500000	1.987000   
540.000000	1.941000   
540.500000	2.004000   
541.000000	1.945000   
541.500000	1.713000   
542.000000	1.850000   
542.500000	1.754000   
543.000000	1.907000   
543.500000	1.785000   
544.000000	1.899000   
544.500000	1.752000   
545.000000	1.703000   
545.500000	1.541000   
546.000000	1.809000   
546.500000	1.592000   
547.000000	1.616000   
547.500000	1.481000   
548.000000	1.421000   
548.500000	1.440000   

