PE FL                   SPECTRUM    ASCII       PEDS        1.60        
  -1
0159FA~1.SP
19/01/24
13:08:38.00
19/01/24
13:08:38.00


548.500000
1









LS45
310.00
10.00
10.00
SCAN
1
16
100
100
0
600
0
1
0
1
7
ON
550 545 
0 0 0
#HDR
-1
-1
#GR
NM
INT 
0.00002384185791015625
0.0
230.000000
0.500000
638
8
999.999000
0.669000
#DATA
230.000000	0.756000   
230.500000	0.834000   
231.000000	0.917000   
231.500000	0.907000   
232.000000	0.875000   
232.500000	0.922000   
233.000000	0.734000   
233.500000	0.669000   
234.000000	0.709000   
234.500000	0.705000   
235.000000	0.843000   
235.500000	0.901000   
236.000000	0.916000   
236.500000	0.723000   
237.000000	0.877000   
237.500000	0.725000   
238.000000	0.850000   
238.500000	0.918000   
239.000000	0.914000   
239.500000	0.831000   
240.000000	0.756000   
240.500000	0.948000   
241.000000	0.822000   
241.500000	0.849000   
242.000000	0.734000   
242.500000	0.819000   
243.000000	0.727000   
243.500000	0.919000   
244.000000	0.796000   
244.500000	0.876000   
245.000000	1.079000   
245.500000	0.950000   
246.000000	1.033000   
246.500000	0.850000   
247.000000	0.837000   
247.500000	0.885000   
248.000000	0.923000   
248.500000	0.950000   
249.000000	0.970000   
249.500000	1.034000   
250.000000	1.083000   
250.500000	0.889000   
251.000000	0.940999   
251.500000	1.064000   
252.000000	1.252000   
252.500000	1.287000   
253.000000	1.146000   
253.500000	0.885000   
254.000000	1.027000   
254.500000	1.285000   
255.000000	0.986000   
255.500000	1.129000   
256.000000	1.013000   
256.500000	1.133000   
257.000000	1.331000   
257.500000	1.284000   
258.000000	1.425000   
258.500000	1.510000   
259.000000	1.257000   
259.500000	1.421000   
260.000000	1.728000   
260.500000	1.300000   
261.000000	1.343000   
261.500000	1.592000   
262.000000	1.510000   
262.500000	1.418000   
263.000000	1.454000   
263.500000	1.474000   
264.000000	1.456000   
264.500000	1.532000   
265.000000	1.526000   
265.500000	1.411000   
266.000000	1.726000   
266.500000	1.887000   
267.000000	1.743000   
267.500000	1.958000   
268.000000	1.971000   
268.500000	1.887000   
269.000000	1.991000   
269.500000	1.926000   
270.000000	2.061000   
270.500000	1.983000   
271.000000	2.170000   
271.500000	2.093000   
272.000000	2.104000   
272.500000	2.284000   
273.000000	2.264000   
273.500000	2.540000   
274.000000	2.481000   
274.500000	2.523000   
275.000000	2.347000   
275.500000	2.364000   
276.000000	2.669000   
276.500000	3.081000   
277.000000	3.018000   
277.500000	2.986000   
278.000000	3.134000   
278.500000	3.279000   
279.000000	3.209000   
279.500000	3.739000   
280.000000	3.661000   
280.500000	3.589000   
281.000000	3.916000   
281.500000	3.774000   
282.000000	4.035000   
282.500000	4.427000   
283.000000	4.142000   
283.500000	4.189000   
284.000000	4.685000   
284.500000	4.867000   
285.000000	5.220000   
285.500000	5.883000   
286.000000	6.394000   
286.500000	6.442000   
287.000000	7.382000   
287.500000	9.086000   
288.000000	11.128000  
288.500000	13.459000  
289.000000	16.721000  
289.500000	21.107000  
290.000000	26.367000  
290.500000	32.889000  
291.000000	42.059000  
291.500000	51.868000  
292.000000	65.991000  
292.500000	78.144000  
293.000000	95.361999  
293.500000	113.983000 
294.000000	135.646000 
294.500000	155.003000 
295.000000	182.639000 
295.500000	214.322000 
296.000000	249.532000 
296.500000	291.003000 
297.000000	325.465000 
297.500000	374.744000 
298.000000	415.983000 
298.500000	469.590000 
299.000000	517.022000 
299.500000	575.701000 
300.000000	632.697000 
300.500000	692.492000 
301.000000	746.705000 
301.500000	803.052000 
302.000000	844.296000 
302.500000	944.187000 
303.000000	951.186000 
303.500000	990.779000 
304.000000	999.999000 
304.500000	999.999000 
305.000000	999.999000 
305.500000	999.999000 
306.000000	999.999000 
306.500000	999.999000 
307.000000	999.999000 
307.500000	999.999000 
308.000000	999.999000 
308.500000	999.999000 
309.000000	999.999000 
309.500000	999.999000 
310.000000	999.999000 
310.500000	999.999000 
311.000000	999.999000 
311.500000	999.999000 
312.000000	999.999000 
312.500000	977.155999 
313.000000	930.753000 
313.500000	877.870000 
314.000000	766.001000 
314.500000	755.337000 
315.000000	636.011999 
315.500000	626.004000 
316.000000	573.606000 
316.500000	515.145000 
317.000000	468.846000 
317.500000	417.570000 
318.000000	368.657000 
318.500000	318.908000 
319.000000	276.399000 
319.500000	233.845000 
320.000000	191.951000 
320.500000	162.854000 
321.000000	136.027000 
321.500000	114.362000 
322.000000	92.471999  
322.500000	77.145000  
323.000000	61.864000  
323.500000	52.566000  
324.000000	43.392000  
324.500000	37.816000  
325.000000	33.739000  
325.500000	32.504000  
326.000000	30.877000  
326.500000	29.732000  
327.000000	29.556000  
327.500000	30.318000  
328.000000	33.472000  
328.500000	35.218000  
329.000000	36.665000  
329.500000	39.291000  
330.000000	41.071000  
330.500000	45.223000  
331.000000	47.879000  
331.500000	51.912000  
332.000000	54.445000  
332.500000	56.428000  
333.000000	61.816000  
333.500000	64.714000  
334.000000	69.034000  
334.500000	74.601000  
335.000000	76.520000  
335.500000	80.830000  
336.000000	83.715999  
336.500000	88.577000  
337.000000	93.102000  
337.500000	96.489000  
338.000000	100.784000 
338.500000	102.540000 
339.000000	104.552000 
339.500000	109.596000 
340.000000	113.231000 
340.500000	115.728000 
341.000000	117.391000 
341.500000	116.288000 
342.000000	119.560000 
342.500000	119.695000 
343.000000	120.854000 
343.500000	121.009000 
344.000000	119.331000 
344.500000	120.325000 
345.000000	117.188000 
345.500000	118.901000 
346.000000	117.789000 
346.500000	114.782000 
347.000000	112.750000 
347.500000	111.648000 
348.000000	107.285000 
348.500000	104.978000 
349.000000	102.871000 
349.500000	100.394000 
350.000000	96.547000  
350.500000	95.157000  
351.000000	91.119000  
351.500000	90.899000  
352.000000	84.909000  
352.500000	83.318000  
353.000000	81.232000  
353.500000	78.071000  
354.000000	75.664000  
354.500000	72.048000  
355.000000	69.276000  
355.500000	69.194999  
356.000000	68.087999  
356.500000	65.269000  
357.000000	63.826000  
357.500000	62.198000  
358.000000	62.799000  
358.500000	62.612000  
359.000000	61.775000  
359.500000	60.999000  
360.000000	60.817000  
360.500000	60.556000  
361.000000	59.538000  
361.500000	60.599000  
362.000000	61.628000  
362.500000	62.643000  
363.000000	61.679000  
363.500000	62.686000  
364.000000	61.339000  
364.500000	63.346000  
365.000000	63.243000  
365.500000	62.989000  
366.000000	64.774000  
366.500000	64.828000  
367.000000	64.852999  
367.500000	64.808000  
368.000000	67.340000  
368.500000	68.257000  
369.000000	68.718000  
369.500000	67.825999  
370.000000	69.842000  
370.500000	70.565000  
371.000000	71.233999  
371.500000	70.367000  
372.000000	72.032000  
372.500000	72.940000  
373.000000	73.139000  
373.500000	74.093000  
374.000000	75.790000  
374.500000	76.431000  
375.000000	75.819999  
375.500000	78.888000  
376.000000	78.090000  
376.500000	76.914000  
377.000000	78.129000  
377.500000	77.687000  
378.000000	78.953000  
378.500000	79.677000  
379.000000	80.331000  
379.500000	81.093999  
380.000000	80.655000  
380.500000	80.547000  
381.000000	83.524000  
381.500000	83.785000  
382.000000	82.057000  
382.500000	83.409000  
383.000000	82.811000  
383.500000	86.143000  
384.000000	85.239000  
384.500000	85.345000  
385.000000	85.301000  
385.500000	85.461000  
386.000000	85.354000  
386.500000	85.340000  
387.000000	86.270000  
387.500000	86.420000  
388.000000	86.526000  
388.500000	85.809000  
389.000000	87.096999  
389.500000	87.026000  
390.000000	88.473000  
390.500000	88.372000  
391.000000	88.150000  
391.500000	87.385000  
392.000000	88.208000  
392.500000	88.950000  
393.000000	87.286000  
393.500000	89.061000  
394.000000	89.126000  
394.500000	87.678000  
395.000000	88.065000  
395.500000	88.428000  
396.000000	87.688000  
396.500000	87.519000  
397.000000	88.730999  
397.500000	88.574000  
398.000000	88.227999  
398.500000	88.456999  
399.000000	89.214000  
399.500000	90.513000  
400.000000	91.065000  
400.500000	91.561000  
401.000000	89.821000  
401.500000	90.135000  
402.000000	89.968999  
402.500000	90.764000  
403.000000	89.566000  
403.500000	90.787000  
404.000000	91.834000  
404.500000	91.486000  
405.000000	89.123000  
405.500000	89.203999  
406.000000	89.531000  
406.500000	89.532000  
407.000000	90.319000  
407.500000	89.668000  
408.000000	89.155000  
408.500000	89.431000  
409.000000	88.546000  
409.500000	88.489999  
410.000000	87.858999  
410.500000	88.742000  
411.000000	88.746000  
411.500000	88.293000  
412.000000	88.232000  
412.500000	86.565000  
413.000000	86.316000  
413.500000	87.348000  
414.000000	86.254000  
414.500000	85.825000  
415.000000	85.777000  
415.500000	85.447000  
416.000000	84.447000  
416.500000	86.657000  
417.000000	84.965000  
417.500000	83.343999  
418.000000	82.221999  
418.500000	82.652000  
419.000000	81.294000  
419.500000	81.974000  
420.000000	82.351000  
420.500000	79.703000  
421.000000	79.036000  
421.500000	77.813000  
422.000000	79.137000  
422.500000	78.121000  
423.000000	77.522000  
423.500000	76.685000  
424.000000	75.983999  
424.500000	75.637000  
425.000000	75.134000  
425.500000	75.418000  
426.000000	76.215000  
426.500000	74.476000  
427.000000	74.407000  
427.500000	73.819000  
428.000000	73.843000  
428.500000	71.598000  
429.000000	72.040000  
429.500000	71.916000  
430.000000	71.181000  
430.500000	72.101000  
431.000000	70.852000  
431.500000	70.171000  
432.000000	69.959999  
432.500000	69.696000  
433.000000	70.244000  
433.500000	69.703999  
434.000000	69.294000  
434.500000	69.148000  
435.000000	68.303000  
435.500000	68.549000  
436.000000	67.813999  
436.500000	68.098000  
437.000000	69.373000  
437.500000	65.985000  
438.000000	66.605000  
438.500000	66.286000  
439.000000	67.287000  
439.500000	64.619000  
440.000000	64.187000  
440.500000	64.809000  
441.000000	65.645000  
441.500000	65.000000  
442.000000	63.666000  
442.500000	64.041000  
443.000000	62.547000  
443.500000	62.231000  
444.000000	60.847000  
444.500000	61.964000  
445.000000	61.702000  
445.500000	60.869000  
446.000000	60.072000  
446.500000	61.674000  
447.000000	60.680000  
447.500000	60.212000  
448.000000	59.695000  
448.500000	59.158000  
449.000000	57.700000  
449.500000	57.004000  
450.000000	57.297000  
450.500000	56.035000  
451.000000	55.971000  
451.500000	55.064000  
452.000000	54.806000  
452.500000	53.904000  
453.000000	54.074000  
453.500000	53.843000  
454.000000	54.858000  
454.500000	52.836000  
455.000000	52.512000  
455.500000	51.600000  
456.000000	52.703000  
456.500000	51.137000  
457.000000	50.185000  
457.500000	49.372000  
458.000000	49.980000  
458.500000	50.048000  
459.000000	47.706000  
459.500000	48.435000  
460.000000	47.178000  
460.500000	47.264000  
461.000000	47.410000  
461.500000	47.156000  
462.000000	45.817000  
462.500000	45.367000  
463.000000	45.524000  
463.500000	45.434000  
464.000000	44.840000  
464.500000	43.330000  
465.000000	43.030000  
465.500000	42.996000  
466.000000	42.631000  
466.500000	41.980000  
467.000000	40.915000  
467.500000	41.914000  
468.000000	40.333000  
468.500000	41.741000  
469.000000	40.916000  
469.500000	39.874000  
470.000000	39.863000  
470.500000	38.992000  
471.000000	39.488000  
471.500000	38.878000  
472.000000	38.457000  
472.500000	38.333000  
473.000000	36.921000  
473.500000	38.721000  
474.000000	37.204000  
474.500000	36.246000  
475.000000	35.739000  
475.500000	35.340000  
476.000000	36.363000  
476.500000	35.956000  
477.000000	35.522000  
477.500000	35.471000  
478.000000	35.173000  
478.500000	33.869000  
479.000000	33.425000  
479.500000	32.948000  
480.000000	33.654000  
480.500000	33.160000  
481.000000	33.348000  
481.500000	33.148000  
482.000000	32.341000  
482.500000	32.053000  
483.000000	32.761000  
483.500000	30.832000  
484.000000	31.989000  
484.500000	31.997000  
485.000000	30.268000  
485.500000	30.859000  
486.000000	30.987000  
486.500000	30.215000  
487.000000	29.870000  
487.500000	29.718000  
488.000000	29.671000  
488.500000	28.961000  
489.000000	28.757000  
489.500000	28.372000  
490.000000	29.211000  
490.500000	27.914000  
491.000000	26.892000  
491.500000	26.713000  
492.000000	26.819000  
492.500000	27.456000  
493.000000	27.350000  
493.500000	26.197000  
494.000000	25.839000  
494.500000	25.528000  
495.000000	25.354000  
495.500000	25.244000  
496.000000	24.684000  
496.500000	24.742000  
497.000000	24.076000  
497.500000	23.894000  
498.000000	23.765000  
498.500000	23.188000  
499.000000	22.546000  
499.500000	22.508000  
500.000000	21.918000  
500.500000	22.851000  
501.000000	20.917000  
501.500000	20.856000  
502.000000	21.288000  
502.500000	21.741000  
503.000000	21.180000  
503.500000	21.063000  
504.000000	21.089000  
504.500000	19.374000  
505.000000	18.831000  
505.500000	19.315000  
506.000000	20.070000  
506.500000	19.277000  
507.000000	19.445000  
507.500000	19.364000  
508.000000	19.010000  
508.500000	18.965000  
509.000000	18.916000  
509.500000	17.611000  
510.000000	18.065000  
510.500000	18.555000  
511.000000	17.656000  
511.500000	16.869000  
512.000000	16.409000  
512.500000	16.984000  
513.000000	16.674000  
513.500000	16.237000  
514.000000	17.011000  
514.500000	16.452000  
515.000000	16.294000  
515.500000	15.891000  
516.000000	16.115000  
516.500000	15.693000  
517.000000	15.592000  
517.500000	15.494000  
518.000000	15.452000  
518.500000	15.437000  
519.000000	15.315000  
519.500000	14.771000  
520.000000	14.424000  
520.500000	13.949000  
521.000000	13.939000  
521.500000	14.292000  
522.000000	13.906000  
522.500000	13.774000  
523.000000	13.263000  
523.500000	13.792000  
524.000000	14.001000  
524.500000	12.864000  
525.000000	13.169000  
525.500000	13.445000  
526.000000	13.191000  
526.500000	13.065000  
527.000000	12.587000  
527.500000	12.206000  
528.000000	12.745000  
528.500000	12.125000  
529.000000	11.312000  
529.500000	11.858000  
530.000000	11.801000  
530.500000	11.438000  
531.000000	11.565000  
531.500000	11.536000  
532.000000	10.663000  
532.500000	10.633000  
533.000000	11.318000  
533.500000	10.995000  
534.000000	10.501000  
534.500000	11.063000  
535.000000	10.627000  
535.500000	10.176000  
536.000000	9.847000   
536.500000	10.002000  
537.000000	9.906000   
537.500000	9.292999   
538.000000	9.468999   
538.500000	9.628000   
539.000000	10.161000  
539.500000	10.159000  
540.000000	10.070000  
540.500000	9.442000   
541.000000	9.378000   
541.500000	9.016000   
542.000000	9.243000   
542.500000	9.132999   
543.000000	8.848000   
543.500000	8.571999   
544.000000	8.297000   
544.500000	8.349000   
545.000000	8.933000   
545.500000	8.199000   
546.000000	8.385999   
546.500000	7.938000   
547.000000	8.281000   
547.500000	8.231000   
548.000000	7.957000   
548.500000	7.870000   

