PE FL                   SPECTRUM    ASCII       PEDS        1.60        
  -1
0124SC~1.SP
19/01/24
13:13:10.00
19/01/24
13:13:10.00


548.500000
1









LS45
340.00
10.00
10.00
SCAN
1
16
100
100
0
600
0
1
0
1
7
ON
550 545 
0 0 0
#HDR
-1
-1
#GR
NM
INT 
0.00002384185791015625
0.0
230.000000
0.500000
638
8
999.999000
0.525000
#DATA
230.000000	0.637000   
230.500000	0.582000   
231.000000	0.669000   
231.500000	0.549000   
232.000000	0.653000   
232.500000	0.682000   
233.000000	0.570000   
233.500000	0.680000   
234.000000	0.723000   
234.500000	0.667000   
235.000000	0.639000   
235.500000	0.538000   
236.000000	0.536000   
236.500000	0.599000   
237.000000	0.610000   
237.500000	0.676000   
238.000000	0.750000   
238.500000	0.576000   
239.000000	0.525000   
239.500000	0.721000   
240.000000	0.778000   
240.500000	0.749000   
241.000000	0.738000   
241.500000	0.727000   
242.000000	0.772000   
242.500000	0.708000   
243.000000	0.706000   
243.500000	0.615000   
244.000000	0.681000   
244.500000	0.641000   
245.000000	0.769000   
245.500000	0.810000   
246.000000	0.650000   
246.500000	0.642000   
247.000000	0.743000   
247.500000	0.807000   
248.000000	0.683000   
248.500000	0.737000   
249.000000	0.697000   
249.500000	0.687999   
250.000000	0.717000   
250.500000	0.937999   
251.000000	0.798000   
251.500000	0.828000   
252.000000	0.928000   
252.500000	0.721000   
253.000000	0.784000   
253.500000	0.821000   
254.000000	0.797000   
254.500000	0.973000   
255.000000	0.796000   
255.500000	0.767000   
256.000000	0.900000   
256.500000	0.778000   
257.000000	0.751000   
257.500000	0.817999   
258.000000	0.931000   
258.500000	0.888000   
259.000000	0.752000   
259.500000	0.767000   
260.000000	0.819000   
260.500000	0.814999   
261.000000	0.802000   
261.500000	0.853000   
262.000000	0.739000   
262.500000	1.080000   
263.000000	1.048000   
263.500000	0.879000   
264.000000	1.055000   
264.500000	0.938999   
265.000000	0.885000   
265.500000	0.994000   
266.000000	0.862000   
266.500000	1.065000   
267.000000	0.986000   
267.500000	0.998000   
268.000000	0.852000   
268.500000	1.133000   
269.000000	1.147000   
269.500000	1.151000   
270.000000	1.059000   
270.500000	0.973000   
271.000000	1.040000   
271.500000	1.017000   
272.000000	1.061000   
272.500000	1.201000   
273.000000	1.170000   
273.500000	1.140000   
274.000000	1.102000   
274.500000	1.270000   
275.000000	1.231000   
275.500000	1.137000   
276.000000	1.175000   
276.500000	1.251000   
277.000000	1.275000   
277.500000	1.156000   
278.000000	1.177000   
278.500000	1.351000   
279.000000	1.267000   
279.500000	1.230000   
280.000000	1.284000   
280.500000	1.379000   
281.000000	1.343000   
281.500000	1.435000   
282.000000	1.414000   
282.500000	1.394000   
283.000000	1.517000   
283.500000	1.650000   
284.000000	1.459000   
284.500000	1.500000   
285.000000	1.592000   
285.500000	1.606000   
286.000000	1.641000   
286.500000	1.629000   
287.000000	1.619000   
287.500000	1.607000   
288.000000	1.841000   
288.500000	2.064000   
289.000000	1.989000   
289.500000	1.649000   
290.000000	1.852000   
290.500000	1.846000   
291.000000	1.833000   
291.500000	1.983000   
292.000000	1.859000   
292.500000	2.013000   
293.000000	1.890000   
293.500000	1.935000   
294.000000	2.137000   
294.500000	2.383000   
295.000000	2.209000   
295.500000	2.281000   
296.000000	2.423000   
296.500000	2.548000   
297.000000	2.777000   
297.500000	2.790000   
298.000000	2.602000   
298.500000	2.752000   
299.000000	2.980000   
299.500000	2.642000   
300.000000	3.214000   
300.500000	3.342000   
301.000000	3.250000   
301.500000	3.349000   
302.000000	3.688000   
302.500000	3.663000   
303.000000	3.681000   
303.500000	3.835000   
304.000000	4.056000   
304.500000	4.257000   
305.000000	4.228000   
305.500000	4.623000   
306.000000	4.664000   
306.500000	4.769000   
307.000000	4.698000   
307.500000	4.631000   
308.000000	4.786000   
308.500000	5.267000   
309.000000	5.081000   
309.500000	5.626000   
310.000000	5.333000   
310.500000	5.900000   
311.000000	5.998000   
311.500000	6.691000   
312.000000	6.636000   
312.500000	6.575000   
313.000000	7.195000   
313.500000	7.512000   
314.000000	6.932000   
314.500000	7.581000   
315.000000	8.257000   
315.500000	8.856999   
316.000000	9.538000   
316.500000	10.749000  
317.000000	11.654000  
317.500000	13.229000  
318.000000	16.230000  
318.500000	19.775000  
319.000000	23.367000  
319.500000	30.040000  
320.000000	40.445000  
320.500000	52.476000  
321.000000	67.193000  
321.500000	81.447000  
322.000000	102.636000 
322.500000	125.151000 
323.000000	160.410000 
323.500000	191.893000 
324.000000	237.282000 
324.500000	287.494000 
325.000000	343.776000 
325.500000	439.469000 
326.000000	450.511000 
326.500000	577.947000 
327.000000	589.701000 
327.500000	723.123000 
328.000000	794.390000 
328.500000	890.645000 
329.000000	975.476000 
329.500000	999.999000 
330.000000	999.999000 
330.500000	999.999000 
331.000000	999.999000 
331.500000	999.999000 
332.000000	999.999000 
332.500000	999.999000 
333.000000	999.999000 
333.500000	999.999000 
334.000000	999.999000 
334.500000	999.999000 
335.000000	999.999000 
335.500000	999.999000 
336.000000	999.999000 
336.500000	999.999000 
337.000000	999.999000 
337.500000	999.999000 
338.000000	999.999000 
338.500000	999.999000 
339.000000	999.999000 
339.500000	999.999000 
340.000000	999.999000 
340.500000	999.999000 
341.000000	999.999000 
341.500000	999.999000 
342.000000	999.999000 
342.500000	999.999000 
343.000000	999.999000 
343.500000	988.389000 
344.000000	976.802000 
344.500000	828.895000 
345.000000	816.388000 
345.500000	677.776000 
346.000000	596.301000 
346.500000	520.804999 
347.000000	509.569000 
347.500000	396.129000 
348.000000	386.395000 
348.500000	335.731000 
349.000000	281.346000 
349.500000	241.492000 
350.000000	194.614000 
350.500000	160.163000 
351.000000	124.702000 
351.500000	107.938000 
352.000000	83.431000  
352.500000	69.043000  
353.000000	58.110000  
353.500000	48.765000  
354.000000	40.985000  
354.500000	33.680000  
355.000000	30.634000  
355.500000	27.451000  
356.000000	26.283000  
356.500000	26.006000  
357.000000	25.294000  
357.500000	24.578000  
358.000000	24.898000  
358.500000	24.470000  
359.000000	25.735000  
359.500000	26.806000  
360.000000	26.385000  
360.500000	26.736000  
361.000000	26.703000  
361.500000	28.216000  
362.000000	29.996000  
362.500000	30.569000  
363.000000	32.323000  
363.500000	33.686000  
364.000000	34.268000  
364.500000	36.863000  
365.000000	38.073000  
365.500000	38.986000  
366.000000	39.981000  
366.500000	42.225000  
367.000000	45.367000  
367.500000	49.051000  
368.000000	50.792000  
368.500000	53.178000  
369.000000	57.187000  
369.500000	59.556000  
370.000000	62.177000  
370.500000	65.663000  
371.000000	67.933000  
371.500000	72.651000  
372.000000	76.489999  
372.500000	79.051000  
373.000000	81.651000  
373.500000	86.221000  
374.000000	90.058000  
374.500000	94.217000  
375.000000	96.655000  
375.500000	98.301000  
376.000000	101.905000 
376.500000	104.671000 
377.000000	107.822000 
377.500000	111.513000 
378.000000	113.009000 
378.500000	115.973000 
379.000000	116.686000 
379.500000	115.845000 
380.000000	118.293000 
380.500000	117.976000 
381.000000	117.724000 
381.500000	117.927000 
382.000000	119.309000 
382.500000	118.756000 
383.000000	116.150000 
383.500000	115.009000 
384.000000	115.118000 
384.500000	113.072000 
385.000000	111.397000 
385.500000	109.273000 
386.000000	106.347000 
386.500000	105.122000 
387.000000	102.739000 
387.500000	102.223000 
388.000000	100.598000 
388.500000	99.501000  
389.000000	96.117000  
389.500000	94.040000  
390.000000	92.299000  
390.500000	88.416000  
391.000000	87.401000  
391.500000	83.968999  
392.000000	83.870000  
392.500000	82.848000  
393.000000	81.998000  
393.500000	79.072999  
394.000000	79.349000  
394.500000	77.328000  
395.000000	76.821000  
395.500000	77.107000  
396.000000	76.473000  
396.500000	74.682000  
397.000000	75.363000  
397.500000	75.590000  
398.000000	74.982000  
398.500000	73.444000  
399.000000	73.897000  
399.500000	74.031000  
400.000000	74.546000  
400.500000	74.522000  
401.000000	75.263000  
401.500000	75.155000  
402.000000	77.117999  
402.500000	76.916000  
403.000000	76.918000  
403.500000	77.724000  
404.000000	77.593000  
404.500000	78.733000  
405.000000	79.336000  
405.500000	79.262000  
406.000000	80.413000  
406.500000	80.995000  
407.000000	80.703000  
407.500000	80.075000  
408.000000	81.160000  
408.500000	81.548000  
409.000000	81.173000  
409.500000	82.052000  
410.000000	82.605999  
410.500000	83.322000  
411.000000	83.041000  
411.500000	83.364999  
412.000000	80.209000  
412.500000	83.203999  
413.000000	84.828000  
413.500000	84.143000  
414.000000	84.694000  
414.500000	83.306000  
415.000000	82.816999  
415.500000	84.848000  
416.000000	85.950000  
416.500000	85.885000  
417.000000	85.486000  
417.500000	85.021000  
418.000000	86.206000  
418.500000	85.952000  
419.000000	84.499000  
419.500000	84.402000  
420.000000	84.780000  
420.500000	85.596000  
421.000000	84.849999  
421.500000	85.653000  
422.000000	85.641000  
422.500000	86.062000  
423.000000	86.054000  
423.500000	84.825999  
424.000000	85.453000  
424.500000	85.589000  
425.000000	84.211000  
425.500000	85.248000  
426.000000	85.420000  
426.500000	85.566000  
427.000000	84.174000  
427.500000	84.462999  
428.000000	85.956999  
428.500000	86.061000  
429.000000	85.410000  
429.500000	84.471999  
430.000000	86.271000  
430.500000	84.808000  
431.000000	84.054000  
431.500000	85.098000  
432.000000	85.623000  
432.500000	85.430000  
433.000000	85.918000  
433.500000	85.718000  
434.000000	84.174000  
434.500000	83.187000  
435.000000	85.288000  
435.500000	85.742999  
436.000000	84.961000  
436.500000	84.498000  
437.000000	85.242000  
437.500000	83.907000  
438.000000	85.555000  
438.500000	85.149000  
439.000000	84.215999  
439.500000	83.590000  
440.000000	83.828000  
440.500000	81.822000  
441.000000	83.465999  
441.500000	84.339000  
442.000000	83.724999  
442.500000	83.758000  
443.000000	83.402000  
443.500000	84.003000  
444.000000	81.962000  
444.500000	81.110000  
445.000000	79.264000  
445.500000	81.563999  
446.000000	80.160000  
446.500000	80.786000  
447.000000	79.497000  
447.500000	79.066999  
448.000000	78.415000  
448.500000	78.888000  
449.000000	77.438999  
449.500000	78.518000  
450.000000	78.677000  
450.500000	75.474000  
451.000000	75.522000  
451.500000	75.001000  
452.000000	75.394000  
452.500000	74.170000  
453.000000	74.938999  
453.500000	74.794000  
454.000000	73.360000  
454.500000	72.055000  
455.000000	72.056000  
455.500000	71.506000  
456.000000	70.638000  
456.500000	70.711000  
457.000000	70.308000  
457.500000	69.558000  
458.000000	69.632000  
458.500000	69.473000  
459.000000	68.348000  
459.500000	68.602000  
460.000000	67.968000  
460.500000	67.673000  
461.000000	66.656000  
461.500000	65.156000  
462.000000	63.232000  
462.500000	63.915000  
463.000000	64.208000  
463.500000	62.380000  
464.000000	60.284000  
464.500000	61.819000  
465.000000	63.404000  
465.500000	60.767000  
466.000000	60.854000  
466.500000	62.226000  
467.000000	60.239000  
467.500000	59.697000  
468.000000	57.773000  
468.500000	57.604000  
469.000000	57.128000  
469.500000	57.321000  
470.000000	56.989000  
470.500000	55.714000  
471.000000	55.332000  
471.500000	55.311000  
472.000000	55.370000  
472.500000	55.116000  
473.000000	54.362000  
473.500000	54.442000  
474.000000	53.383000  
474.500000	53.940000  
475.000000	54.411000  
475.500000	53.876000  
476.000000	52.807000  
476.500000	52.169000  
477.000000	51.412000  
477.500000	51.876000  
478.000000	50.123000  
478.500000	50.170000  
479.000000	48.974000  
479.500000	48.898000  
480.000000	49.572000  
480.500000	49.382000  
481.000000	48.964000  
481.500000	48.641000  
482.000000	48.605000  
482.500000	47.087000  
483.000000	46.943000  
483.500000	46.560000  
484.000000	46.119000  
484.500000	46.505000  
485.000000	44.977000  
485.500000	44.503000  
486.000000	44.820000  
486.500000	44.394000  
487.000000	44.322000  
487.500000	45.059000  
488.000000	44.216000  
488.500000	43.520000  
489.000000	42.880000  
489.500000	42.512000  
490.000000	42.440000  
490.500000	41.446000  
491.000000	40.797000  
491.500000	40.309000  
492.000000	41.299000  
492.500000	41.079000  
493.000000	40.534000  
493.500000	40.590000  
494.000000	39.028000  
494.500000	39.193000  
495.000000	38.195000  
495.500000	38.419000  
496.000000	38.191000  
496.500000	36.976000  
497.000000	38.526000  
497.500000	38.388000  
498.000000	36.491000  
498.500000	36.841000  
499.000000	35.958000  
499.500000	36.389000  
500.000000	36.177000  
500.500000	35.914000  
501.000000	35.702000  
501.500000	34.272000  
502.000000	34.159000  
502.500000	33.583000  
503.000000	33.807000  
503.500000	33.886000  
504.000000	32.703000  
504.500000	33.071000  
505.000000	33.029000  
505.500000	32.563000  
506.000000	32.374000  
506.500000	32.375000  
507.000000	31.380000  
507.500000	30.995000  
508.000000	31.413000  
508.500000	31.104000  
509.000000	29.575000  
509.500000	29.885000  
510.000000	29.242000  
510.500000	28.664000  
511.000000	29.273000  
511.500000	28.879000  
512.000000	28.039000  
512.500000	27.417000  
513.000000	28.728000  
513.500000	27.543000  
514.000000	27.628000  
514.500000	26.892000  
515.000000	27.337000  
515.500000	26.664000  
516.000000	26.547000  
516.500000	26.119000  
517.000000	26.307000  
517.500000	24.541000  
518.000000	24.782000  
518.500000	25.009000  
519.000000	25.640000  
519.500000	25.182000  
520.000000	23.700000  
520.500000	23.376000  
521.000000	23.727000  
521.500000	23.671000  
522.000000	23.935000  
522.500000	23.242000  
523.000000	23.237000  
523.500000	22.709000  
524.000000	22.785000  
524.500000	22.787000  
525.000000	21.951000  
525.500000	22.460000  
526.000000	20.832000  
526.500000	20.892000  
527.000000	20.650000  
527.500000	20.916000  
528.000000	20.949000  
528.500000	20.182000  
529.000000	20.297000  
529.500000	20.118000  
530.000000	19.276000  
530.500000	19.763000  
531.000000	19.247000  
531.500000	18.447000  
532.000000	18.218000  
532.500000	18.189000  
533.000000	18.240000  
533.500000	17.983000  
534.000000	17.519000  
534.500000	17.357000  
535.000000	16.732000  
535.500000	16.773000  
536.000000	17.225000  
536.500000	16.428000  
537.000000	16.121000  
537.500000	15.707000  
538.000000	15.391000  
538.500000	15.529000  
539.000000	15.675000  
539.500000	15.271000  
540.000000	14.858000  
540.500000	14.606000  
541.000000	13.889000  
541.500000	14.358000  
542.000000	14.706000  
542.500000	13.995000  
543.000000	13.732000  
543.500000	14.372000  
544.000000	13.330000  
544.500000	13.237000  
545.000000	12.778000  
545.500000	13.009000  
546.000000	12.070000  
546.500000	12.868000  
547.000000	13.111000  
547.500000	12.552000  
548.000000	12.688000  
548.500000	11.651000  

