PE FL                   SPECTRUM    ASCII       PEDS        1.60        
  -1
0124SC~4.SP
19/01/24
13:22:12.00
19/01/24
13:22:12.00


548.500000
1









LS45
400.00
10.00
10.00
SCAN
1
16
100
100
0
600
0
1
0
1
7
ON
550 545 
0 0 0
#HDR
-1
-1
#GR
NM
INT 
0.00002384185791015625
0.0
230.000000
0.500000
638
8
999.999000
0.227000
#DATA
230.000000	0.227000   
230.500000	0.283000   
231.000000	0.249000   
231.500000	0.323000   
232.000000	0.338000   
232.500000	0.312000   
233.000000	0.295000   
233.500000	0.324000   
234.000000	0.341000   
234.500000	0.352000   
235.000000	0.391000   
235.500000	0.313000   
236.000000	0.301000   
236.500000	0.293000   
237.000000	0.294000   
237.500000	0.344000   
238.000000	0.365000   
238.500000	0.495000   
239.000000	0.372000   
239.500000	0.299000   
240.000000	0.245000   
240.500000	0.318000   
241.000000	0.274000   
241.500000	0.284000   
242.000000	0.288000   
242.500000	0.300000   
243.000000	0.370000   
243.500000	0.356000   
244.000000	0.307000   
244.500000	0.311000   
245.000000	0.275000   
245.500000	0.270000   
246.000000	0.339000   
246.500000	0.339000   
247.000000	0.318000   
247.500000	0.295000   
248.000000	0.268000   
248.500000	0.242000   
249.000000	0.298000   
249.500000	0.372000   
250.000000	0.356000   
250.500000	0.341000   
251.000000	0.301000   
251.500000	0.320000   
252.000000	0.368000   
252.500000	0.432000   
253.000000	0.404000   
253.500000	0.419000   
254.000000	0.381000   
254.500000	0.263000   
255.000000	0.368000   
255.500000	0.438000   
256.000000	0.294000   
256.500000	0.348000   
257.000000	0.374000   
257.500000	0.377000   
258.000000	0.349000   
258.500000	0.404000   
259.000000	0.344000   
259.500000	0.315000   
260.000000	0.362000   
260.500000	0.312000   
261.000000	0.311000   
261.500000	0.295000   
262.000000	0.354000   
262.500000	0.405000   
263.000000	0.401000   
263.500000	0.421000   
264.000000	0.356000   
264.500000	0.343000   
265.000000	0.353000   
265.500000	0.315000   
266.000000	0.335000   
266.500000	0.438000   
267.000000	0.350000   
267.500000	0.398000   
268.000000	0.451000   
268.500000	0.401000   
269.000000	0.349000   
269.500000	0.472000   
270.000000	0.366000   
270.500000	0.349000   
271.000000	0.325000   
271.500000	0.320000   
272.000000	0.337000   
272.500000	0.407000   
273.000000	0.323000   
273.500000	0.413000   
274.000000	0.399000   
274.500000	0.385000   
275.000000	0.412000   
275.500000	0.390000   
276.000000	0.422000   
276.500000	0.397000   
277.000000	0.499000   
277.500000	0.472000   
278.000000	0.490000   
278.500000	0.493000   
279.000000	0.358000   
279.500000	0.454000   
280.000000	0.443000   
280.500000	0.450000   
281.000000	0.436000   
281.500000	0.470000   
282.000000	0.499000   
282.500000	0.469000   
283.000000	0.468000   
283.500000	0.471000   
284.000000	0.344000   
284.500000	0.360000   
285.000000	0.383000   
285.500000	0.450000   
286.000000	0.398000   
286.500000	0.515000   
287.000000	0.538000   
287.500000	0.481000   
288.000000	0.360000   
288.500000	0.369000   
289.000000	0.409000   
289.500000	0.407000   
290.000000	0.557000   
290.500000	0.491000   
291.000000	0.509000   
291.500000	0.454000   
292.000000	0.515000   
292.500000	0.549000   
293.000000	0.545000   
293.500000	0.548000   
294.000000	0.543000   
294.500000	0.546000   
295.000000	0.548000   
295.500000	0.469000   
296.000000	0.525000   
296.500000	0.566999   
297.000000	0.503000   
297.500000	0.529000   
298.000000	0.557000   
298.500000	0.510000   
299.000000	0.494000   
299.500000	0.541000   
300.000000	0.561000   
300.500000	0.559000   
301.000000	0.493000   
301.500000	0.561000   
302.000000	0.723000   
302.500000	0.675000   
303.000000	0.675000   
303.500000	0.613000   
304.000000	0.680000   
304.500000	0.751000   
305.000000	0.603000   
305.500000	0.581000   
306.000000	0.597000   
306.500000	0.647000   
307.000000	0.702000   
307.500000	0.774000   
308.000000	0.602000   
308.500000	0.750000   
309.000000	0.741000   
309.500000	0.669000   
310.000000	0.701000   
310.500000	0.689999   
311.000000	0.831000   
311.500000	0.812000   
312.000000	0.633000   
312.500000	0.756000   
313.000000	0.720000   
313.500000	0.708000   
314.000000	0.682000   
314.500000	0.741000   
315.000000	0.854000   
315.500000	0.896000   
316.000000	0.872000   
316.500000	0.910000   
317.000000	0.843000   
317.500000	0.884000   
318.000000	0.863000   
318.500000	0.911000   
319.000000	0.809000   
319.500000	0.852000   
320.000000	0.976000   
320.500000	0.808000   
321.000000	0.914000   
321.500000	0.903000   
322.000000	0.834000   
322.500000	0.873000   
323.000000	0.886000   
323.500000	0.834000   
324.000000	0.897000   
324.500000	1.031000   
325.000000	1.039000   
325.500000	0.902000   
326.000000	0.840000   
326.500000	0.930000   
327.000000	1.187000   
327.500000	0.997000   
328.000000	1.060000   
328.500000	1.153000   
329.000000	1.087000   
329.500000	1.009000   
330.000000	1.126000   
330.500000	1.230000   
331.000000	1.062000   
331.500000	1.094000   
332.000000	1.198000   
332.500000	0.999000   
333.000000	1.042000   
333.500000	1.156000   
334.000000	1.094000   
334.500000	1.000000   
335.000000	1.039000   
335.500000	1.168000   
336.000000	1.377000   
336.500000	1.307000   
337.000000	1.271000   
337.500000	1.292000   
338.000000	1.420000   
338.500000	1.532000   
339.000000	1.735000   
339.500000	1.570000   
340.000000	1.482000   
340.500000	1.452000   
341.000000	1.495000   
341.500000	1.261000   
342.000000	1.510000   
342.500000	1.444000   
343.000000	1.613000   
343.500000	1.617000   
344.000000	1.594000   
344.500000	1.601000   
345.000000	1.626000   
345.500000	1.706000   
346.000000	1.810000   
346.500000	1.882000   
347.000000	1.795000   
347.500000	1.862000   
348.000000	1.806000   
348.500000	1.943000   
349.000000	1.941000   
349.500000	2.234000   
350.000000	2.090000   
350.500000	2.081000   
351.000000	2.305000   
351.500000	2.093000   
352.000000	2.141000   
352.500000	2.078000   
353.000000	2.608000   
353.500000	2.692000   
354.000000	2.575000   
354.500000	2.665000   
355.000000	2.637000   
355.500000	2.583000   
356.000000	2.812000   
356.500000	2.662000   
357.000000	2.706000   
357.500000	2.961000   
358.000000	3.027000   
358.500000	2.885000   
359.000000	3.200000   
359.500000	3.487000   
360.000000	3.149000   
360.500000	3.421000   
361.000000	3.370000   
361.500000	3.370000   
362.000000	3.481000   
362.500000	3.350000   
363.000000	3.691000   
363.500000	4.080000   
364.000000	4.200000   
364.500000	4.283000   
365.000000	3.968000   
365.500000	4.015000   
366.000000	4.396000   
366.500000	3.882000   
367.000000	4.297000   
367.500000	4.555000   
368.000000	4.417000   
368.500000	4.531000   
369.000000	4.736000   
369.500000	4.781000   
370.000000	5.085000   
370.500000	5.483000   
371.000000	5.481000   
371.500000	5.325000   
372.000000	5.846000   
372.500000	6.021000   
373.000000	6.236000   
373.500000	6.096000   
374.000000	6.607000   
374.500000	6.882000   
375.000000	7.674000   
375.500000	7.893000   
376.000000	9.343999   
376.500000	10.638000  
377.000000	13.068000  
377.500000	15.880000  
378.000000	19.024000  
378.500000	24.460000  
379.000000	30.795000  
379.500000	40.695000  
380.000000	50.028000  
380.500000	64.965999  
381.000000	79.272000  
381.500000	100.032000 
382.000000	122.757000 
382.500000	148.602000 
383.000000	178.670000 
383.500000	212.284000 
384.000000	252.567000 
384.500000	294.908000 
385.000000	344.207000 
385.500000	401.544000 
386.000000	458.252000 
386.500000	573.066000 
387.000000	580.990000 
387.500000	696.640000 
388.000000	706.628000 
388.500000	821.520000 
389.000000	832.827000 
389.500000	891.033000 
390.000000	953.201000 
390.500000	999.999000 
391.000000	999.999000 
391.500000	999.999000 
392.000000	999.999000 
392.500000	999.999000 
393.000000	999.999000 
393.500000	999.999000 
394.000000	999.999000 
394.500000	999.999000 
395.000000	999.999000 
395.500000	999.999000 
396.000000	999.999000 
396.500000	999.999000 
397.000000	999.999000 
397.500000	999.999000 
398.000000	999.999000 
398.500000	999.999000 
399.000000	999.999000 
399.500000	999.999000 
400.000000	999.999000 
400.500000	999.999000 
401.000000	999.999000 
401.500000	999.999000 
402.000000	999.999000 
402.500000	999.999000 
403.000000	999.999000 
403.500000	897.368000 
404.000000	886.862000 
404.500000	771.197000 
405.000000	760.269000 
405.500000	637.068000 
406.000000	625.588000 
406.500000	510.035000 
407.000000	498.546000 
407.500000	441.691000 
408.000000	386.774000 
408.500000	329.837000 
409.000000	275.728000 
409.500000	238.662000 
410.000000	198.565000 
410.500000	165.234000 
411.000000	137.289000 
411.500000	111.523000 
412.000000	94.739000  
412.500000	72.569999  
413.000000	59.148000  
413.500000	48.066000  
414.000000	40.962000  
414.500000	32.175000  
415.000000	28.468000  
415.500000	23.749000  
416.000000	20.713000  
416.500000	19.580000  
417.000000	19.395000  
417.500000	18.354000  
418.000000	18.284000  
418.500000	18.233000  
419.000000	18.506000  
419.500000	19.276000  
420.000000	19.318000  
420.500000	19.629000  
421.000000	19.917000  
421.500000	19.955000  
422.000000	19.841000  
422.500000	20.904000  
423.000000	20.940000  
423.500000	21.131000  
424.000000	22.117000  
424.500000	22.725000  
425.000000	23.233000  
425.500000	22.841000  
426.000000	22.773000  
426.500000	23.257000  
427.000000	23.828000  
427.500000	24.186000  
428.000000	24.889000  
428.500000	25.220000  
429.000000	25.209000  
429.500000	25.610000  
430.000000	26.616000  
430.500000	26.828000  
431.000000	26.781000  
431.500000	28.111000  
432.000000	28.507000  
432.500000	28.345000  
433.000000	28.728000  
433.500000	28.776000  
434.000000	29.536000  
434.500000	30.236000  
435.000000	30.155000  
435.500000	30.810000  
436.000000	30.349000  
436.500000	31.823000  
437.000000	32.534000  
437.500000	31.976000  
438.000000	33.166000  
438.500000	32.643000  
439.000000	33.643000  
439.500000	34.033000  
440.000000	34.909000  
440.500000	35.252000  
441.000000	36.224000  
441.500000	36.251000  
442.000000	36.894000  
442.500000	37.887000  
443.000000	37.857000  
443.500000	39.971000  
444.000000	40.203000  
444.500000	40.635000  
445.000000	40.505000  
445.500000	42.228000  
446.000000	43.340000  
446.500000	45.248000  
447.000000	44.923000  
447.500000	46.154000  
448.000000	47.122000  
448.500000	48.453000  
449.000000	49.337000  
449.500000	50.325000  
450.000000	50.815000  
450.500000	53.136000  
451.000000	53.618000  
451.500000	52.723000  
452.000000	53.679000  
452.500000	55.629000  
453.000000	54.683000  
453.500000	56.317000  
454.000000	56.758000  
454.500000	56.790000  
455.000000	58.073000  
455.500000	58.419000  
456.000000	59.291000  
456.500000	59.233000  
457.000000	58.215000  
457.500000	58.831000  
458.000000	58.328000  
458.500000	58.260000  
459.000000	59.699000  
459.500000	58.447000  
460.000000	57.970000  
460.500000	56.767000  
461.000000	56.971000  
461.500000	57.484000  
462.000000	56.195000  
462.500000	55.670000  
463.000000	54.489000  
463.500000	53.471000  
464.000000	52.314000  
464.500000	51.300000  
465.000000	51.843000  
465.500000	50.775000  
466.000000	49.511000  
466.500000	48.585000  
467.000000	49.295000  
467.500000	46.390000  
468.000000	46.747000  
468.500000	46.254000  
469.000000	44.797000  
469.500000	43.565000  
470.000000	42.223000  
470.500000	42.097000  
471.000000	42.648000  
471.500000	42.129000  
472.000000	41.132000  
472.500000	40.981000  
473.000000	38.878000  
473.500000	39.342000  
474.000000	39.045000  
474.500000	38.412000  
475.000000	38.336000  
475.500000	38.403000  
476.000000	36.715000  
476.500000	37.209000  
477.000000	37.377000  
477.500000	37.524000  
478.000000	37.065000  
478.500000	35.847000  
479.000000	35.606000  
479.500000	36.066000  
480.000000	36.544000  
480.500000	35.334000  
481.000000	35.997000  
481.500000	35.795000  
482.000000	35.934000  
482.500000	34.714000  
483.000000	35.240000  
483.500000	34.793000  
484.000000	34.818000  
484.500000	34.911000  
485.000000	34.627000  
485.500000	34.390000  
486.000000	34.539000  
486.500000	34.628000  
487.000000	34.246000  
487.500000	33.121000  
488.000000	33.252000  
488.500000	33.501000  
489.000000	34.378000  
489.500000	33.489000  
490.000000	32.954000  
490.500000	32.889000  
491.000000	32.067000  
491.500000	32.302000  
492.000000	32.065000  
492.500000	33.000000  
493.000000	32.236000  
493.500000	31.654000  
494.000000	31.594000  
494.500000	31.531000  
495.000000	31.255000  
495.500000	32.432000  
496.000000	31.752000  
496.500000	31.300000  
497.000000	31.060000  
497.500000	31.058000  
498.000000	30.308000  
498.500000	29.660000  
499.000000	29.842000  
499.500000	29.523000  
500.000000	29.786000  
500.500000	29.835000  
501.000000	29.332000  
501.500000	29.640000  
502.000000	29.461000  
502.500000	28.842000  
503.000000	28.691000  
503.500000	28.586000  
504.000000	28.527000  
504.500000	28.283000  
505.000000	27.217000  
505.500000	27.243000  
506.000000	26.636000  
506.500000	26.246000  
507.000000	26.860000  
507.500000	27.270000  
508.000000	26.901000  
508.500000	26.297000  
509.000000	26.401000  
509.500000	25.946000  
510.000000	25.579000  
510.500000	24.864000  
511.000000	24.537000  
511.500000	25.234000  
512.000000	24.760000  
512.500000	24.374000  
513.000000	24.730000  
513.500000	24.035000  
514.000000	23.825000  
514.500000	23.906000  
515.000000	23.548000  
515.500000	23.372000  
516.000000	23.275000  
516.500000	22.776000  
517.000000	23.247000  
517.500000	22.860000  
518.000000	22.565000  
518.500000	22.311000  
519.000000	22.365000  
519.500000	22.353000  
520.000000	21.989000  
520.500000	21.304000  
521.000000	21.836000  
521.500000	21.803000  
522.000000	21.227000  
522.500000	20.863000  
523.000000	19.847000  
523.500000	20.836000  
524.000000	20.468000  
524.500000	19.400000  
525.000000	19.097000  
525.500000	19.716000  
526.000000	19.700000  
526.500000	19.292000  
527.000000	19.050000  
527.500000	18.306000  
528.000000	18.526000  
528.500000	18.656000  
529.000000	18.314000  
529.500000	17.650000  
530.000000	17.171000  
530.500000	17.401000  
531.000000	17.055000  
531.500000	17.717000  
532.000000	16.923000  
532.500000	16.343000  
533.000000	16.654000  
533.500000	16.509000  
534.000000	16.115000  
534.500000	16.132000  
535.000000	15.653000  
535.500000	15.920000  
536.000000	15.350000  
536.500000	15.045000  
537.000000	14.910000  
537.500000	14.584000  
538.000000	14.515000  
538.500000	14.643000  
539.000000	14.396000  
539.500000	13.779000  
540.000000	13.513000  
540.500000	13.628000  
541.000000	13.677000  
541.500000	13.349000  
542.000000	13.037000  
542.500000	12.619000  
543.000000	12.271000  
543.500000	12.343000  
544.000000	12.185000  
544.500000	12.143000  
545.000000	12.660000  
545.500000	11.463000  
546.000000	11.413000  
546.500000	11.377000  
547.000000	11.719000  
547.500000	11.416000  
548.000000	11.013000  
548.500000	10.917000  

