PE FL                   SPECTRUM    ASCII       PEDS        1.60        
  -1
015DFE~1.SP
19/01/24
13:16:55.00
19/01/24
13:16:55.00


548.500000
1









LS45
365.00
10.00
10.00
SCAN
1
16
100
100
0
600
0
1
0
1
7
ON
550 545 
0 0 0
#HDR
-1
-1
#GR
NM
INT 
0.00002384185791015625
0.0
230.000000
0.500000
638
8
999.999000
0.340000
#DATA
230.000000	0.474000   
230.500000	0.562999   
231.000000	0.461000   
231.500000	0.437000   
232.000000	0.472000   
232.500000	0.440000   
233.000000	0.464000   
233.500000	0.385000   
234.000000	0.383000   
234.500000	0.404000   
235.000000	0.386000   
235.500000	0.455000   
236.000000	0.511000   
236.500000	0.435000   
237.000000	0.530000   
237.500000	0.423000   
238.000000	0.384000   
238.500000	0.350000   
239.000000	0.474000   
239.500000	0.479000   
240.000000	0.391000   
240.500000	0.340000   
241.000000	0.450000   
241.500000	0.494000   
242.000000	0.548000   
242.500000	0.485000   
243.000000	0.376000   
243.500000	0.518000   
244.000000	0.565999   
244.500000	0.434000   
245.000000	0.457000   
245.500000	0.444000   
246.000000	0.548000   
246.500000	0.434000   
247.000000	0.522000   
247.500000	0.469000   
248.000000	0.495000   
248.500000	0.411000   
249.000000	0.526000   
249.500000	0.626000   
250.000000	0.461000   
250.500000	0.488000   
251.000000	0.464000   
251.500000	0.479000   
252.000000	0.571000   
252.500000	0.651000   
253.000000	0.437000   
253.500000	0.445000   
254.000000	0.627000   
254.500000	0.477000   
255.000000	0.596000   
255.500000	0.566999   
256.000000	0.589000   
256.500000	0.574000   
257.000000	0.531000   
257.500000	0.502000   
258.000000	0.534000   
258.500000	0.632000   
259.000000	0.633000   
259.500000	0.566999   
260.000000	0.484000   
260.500000	0.537000   
261.000000	0.526000   
261.500000	0.717000   
262.000000	0.662000   
262.500000	0.606000   
263.000000	0.631000   
263.500000	0.608000   
264.000000	0.642000   
264.500000	0.607000   
265.000000	0.480000   
265.500000	0.613000   
266.000000	0.765000   
266.500000	0.731000   
267.000000	0.745000   
267.500000	0.597000   
268.000000	0.562999   
268.500000	0.471000   
269.000000	0.630000   
269.500000	0.623000   
270.000000	0.614000   
270.500000	0.558000   
271.000000	0.578000   
271.500000	0.620000   
272.000000	0.694000   
272.500000	0.740000   
273.000000	0.858000   
273.500000	0.796000   
274.000000	0.606000   
274.500000	0.637000   
275.000000	0.633000   
275.500000	0.716000   
276.000000	0.606000   
276.500000	0.768000   
277.000000	0.806000   
277.500000	0.767000   
278.000000	0.723000   
278.500000	0.745000   
279.000000	0.660000   
279.500000	0.725000   
280.000000	0.876000   
280.500000	0.918000   
281.000000	0.736000   
281.500000	0.760000   
282.000000	0.862000   
282.500000	0.868000   
283.000000	0.893000   
283.500000	0.894000   
284.000000	0.842000   
284.500000	0.841000   
285.000000	0.918000   
285.500000	0.812000   
286.000000	0.822000   
286.500000	0.778000   
287.000000	0.881000   
287.500000	0.950000   
288.000000	0.947000   
288.500000	0.979000   
289.000000	0.924000   
289.500000	0.998000   
290.000000	0.983000   
290.500000	0.955000   
291.000000	0.941999   
291.500000	1.068000   
292.000000	0.799000   
292.500000	0.863000   
293.000000	1.007000   
293.500000	0.936000   
294.000000	0.826000   
294.500000	0.926000   
295.000000	0.878000   
295.500000	1.126000   
296.000000	1.053000   
296.500000	0.934000   
297.000000	0.840000   
297.500000	1.052000   
298.000000	1.063000   
298.500000	1.053000   
299.000000	1.071000   
299.500000	1.087000   
300.000000	1.069000   
300.500000	1.131000   
301.000000	1.111000   
301.500000	1.138000   
302.000000	1.223000   
302.500000	1.300000   
303.000000	1.189000   
303.500000	1.116000   
304.000000	1.278000   
304.500000	1.324000   
305.000000	1.320000   
305.500000	1.197000   
306.000000	1.367000   
306.500000	1.500000   
307.000000	1.585000   
307.500000	1.446000   
308.000000	1.421000   
308.500000	1.508000   
309.000000	1.522000   
309.500000	1.664000   
310.000000	1.472000   
310.500000	1.576000   
311.000000	1.552000   
311.500000	1.869000   
312.000000	1.848000   
312.500000	1.823000   
313.000000	1.649000   
313.500000	1.748000   
314.000000	1.758000   
314.500000	1.859000   
315.000000	1.812000   
315.500000	2.022000   
316.000000	2.009000   
316.500000	2.219000   
317.000000	2.196000   
317.500000	2.283000   
318.000000	2.131000   
318.500000	2.317000   
319.000000	2.231000   
319.500000	2.579000   
320.000000	2.507000   
320.500000	2.470000   
321.000000	2.909000   
321.500000	2.549000   
322.000000	2.971000   
322.500000	2.950000   
323.000000	3.188000   
323.500000	2.946000   
324.000000	3.043000   
324.500000	3.214000   
325.000000	3.565000   
325.500000	3.105000   
326.000000	3.302000   
326.500000	3.661000   
327.000000	3.951000   
327.500000	3.748000   
328.000000	3.724000   
328.500000	4.158000   
329.000000	4.484000   
329.500000	4.122000   
330.000000	4.489000   
330.500000	4.803000   
331.000000	4.900000   
331.500000	4.874000   
332.000000	5.074000   
332.500000	5.427000   
333.000000	5.364000   
333.500000	5.520000   
334.000000	5.306000   
334.500000	5.668000   
335.000000	6.046000   
335.500000	6.610000   
336.000000	7.036000   
336.500000	6.666000   
337.000000	6.972000   
337.500000	7.004000   
338.000000	7.326000   
338.500000	7.852000   
339.000000	7.725000   
339.500000	8.465999   
340.000000	8.750999   
340.500000	9.135000   
341.000000	10.161000  
341.500000	11.681000  
342.000000	14.375000  
342.500000	17.735000  
343.000000	21.549000  
343.500000	26.495000  
344.000000	33.907000  
344.500000	42.909000  
345.000000	54.203000  
345.500000	68.915000  
346.000000	89.593999  
346.500000	113.342000 
347.000000	139.258000 
347.500000	166.737000 
348.000000	207.061000 
348.500000	244.314000 
349.000000	294.604000 
349.500000	392.712000 
350.000000	404.435000 
350.500000	540.311000 
351.000000	550.749000 
351.500000	674.096000 
352.000000	742.707000 
352.500000	823.929000 
353.000000	900.182000 
353.500000	980.304999 
354.000000	999.999000 
354.500000	999.999000 
355.000000	999.999000 
355.500000	999.999000 
356.000000	999.999000 
356.500000	999.999000 
357.000000	999.999000 
357.500000	999.999000 
358.000000	999.999000 
358.500000	999.999000 
359.000000	999.999000 
359.500000	999.999000 
360.000000	999.999000 
360.500000	999.999000 
361.000000	999.999000 
361.500000	999.999000 
362.000000	999.999000 
362.500000	999.999000 
363.000000	999.999000 
363.500000	999.999000 
364.000000	999.999000 
364.500000	999.999000 
365.000000	999.999000 
365.500000	999.999000 
366.000000	999.999000 
366.500000	999.999000 
367.000000	999.999000 
367.500000	999.999000 
368.000000	999.999000 
368.500000	918.542000 
369.000000	907.958000 
369.500000	765.045000 
370.000000	752.363000 
370.500000	619.360000 
371.000000	608.372000 
371.500000	490.197000 
372.000000	478.874000 
372.500000	421.706000 
373.000000	364.176000 
373.500000	312.375000 
374.000000	257.767000 
374.500000	219.846000 
375.000000	182.850000 
375.500000	151.499000 
376.000000	126.774000 
376.500000	101.824000 
377.000000	86.211000  
377.500000	68.782000  
378.000000	56.702000  
378.500000	46.665000  
379.000000	39.593000  
379.500000	34.275000  
380.000000	29.928000  
380.500000	27.460000  
381.000000	24.624000  
381.500000	23.318000  
382.000000	22.819000  
382.500000	22.362000  
383.000000	22.008000  
383.500000	22.770000  
384.000000	22.250000  
384.500000	23.267000  
385.000000	23.541000  
385.500000	23.235000  
386.000000	23.462000  
386.500000	23.968000  
387.000000	24.076000  
387.500000	24.424000  
388.000000	24.101000  
388.500000	25.229000  
389.000000	25.957000  
389.500000	25.859000  
390.000000	26.222000  
390.500000	26.272000  
391.000000	27.586000  
391.500000	27.742000  
392.000000	28.832000  
392.500000	29.332000  
393.000000	30.478000  
393.500000	30.329000  
394.000000	30.095000  
394.500000	32.413000  
395.000000	33.195000  
395.500000	34.601000  
396.000000	35.099000  
396.500000	35.754000  
397.000000	37.646000  
397.500000	38.414000  
398.000000	39.988000  
398.500000	42.304000  
399.000000	43.574000  
399.500000	46.412000  
400.000000	47.985000  
400.500000	50.024000  
401.000000	52.093000  
401.500000	54.567000  
402.000000	57.595000  
402.500000	58.735000  
403.000000	62.469000  
403.500000	62.805000  
404.000000	66.345000  
404.500000	69.072999  
405.000000	71.108999  
405.500000	72.604000  
406.000000	76.316000  
406.500000	78.653000  
407.000000	82.769000  
407.500000	83.802000  
408.000000	84.444000  
408.500000	85.739000  
409.000000	86.518000  
409.500000	90.536000  
410.000000	91.927000  
410.500000	92.941999  
411.000000	94.462000  
411.500000	95.113000  
412.000000	95.634000  
412.500000	97.312000  
413.000000	98.553000  
413.500000	99.450999  
414.000000	101.355000 
414.500000	98.624000  
415.000000	97.361999  
415.500000	98.340000  
416.000000	97.550000  
416.500000	96.622000  
417.000000	94.879000  
417.500000	93.287000  
418.000000	92.230999  
418.500000	91.419000  
419.000000	90.473000  
419.500000	89.744000  
420.000000	87.456999  
420.500000	86.184000  
421.000000	85.491000  
421.500000	83.040000  
422.000000	82.810000  
422.500000	80.877000  
423.000000	79.783000  
423.500000	78.977999  
424.000000	77.217000  
424.500000	77.834999  
425.000000	76.069999  
425.500000	76.187000  
426.000000	74.849000  
426.500000	75.117999  
427.000000	73.449000  
427.500000	72.938000  
428.000000	72.506000  
428.500000	71.399000  
429.000000	72.779000  
429.500000	72.398000  
430.000000	70.851000  
430.500000	72.431000  
431.000000	72.041000  
431.500000	71.596999  
432.000000	72.390000  
432.500000	71.776000  
433.000000	73.361000  
433.500000	73.563000  
434.000000	73.121000  
434.500000	72.294000  
435.000000	74.027000  
435.500000	74.496000  
436.000000	75.022000  
436.500000	73.620000  
437.000000	74.767000  
437.500000	74.230999  
438.000000	75.107000  
438.500000	75.518000  
439.000000	75.988000  
439.500000	75.288000  
440.000000	75.173000  
440.500000	75.971000  
441.000000	75.605000  
441.500000	75.519000  
442.000000	75.970000  
442.500000	77.102999  
443.000000	76.170000  
443.500000	75.870000  
444.000000	77.154000  
444.500000	77.043000  
445.000000	76.455000  
445.500000	76.032000  
446.000000	76.102999  
446.500000	76.974999  
447.000000	76.709000  
447.500000	77.203000  
448.000000	78.077000  
448.500000	77.601000  
449.000000	75.742999  
449.500000	76.179000  
450.000000	74.617999  
450.500000	74.434000  
451.000000	74.449000  
451.500000	75.530000  
452.000000	74.741000  
452.500000	75.290000  
453.000000	74.413000  
453.500000	73.545000  
454.000000	72.927000  
454.500000	74.278000  
455.000000	73.982000  
455.500000	72.714000  
456.000000	72.149000  
456.500000	71.337000  
457.000000	71.670000  
457.500000	71.105999  
458.000000	70.956000  
458.500000	70.429000  
459.000000	69.001000  
459.500000	70.367000  
460.000000	69.328999  
460.500000	67.020000  
461.000000	67.724000  
461.500000	68.569000  
462.000000	67.625000  
462.500000	66.331000  
463.000000	67.047000  
463.500000	66.726000  
464.000000	65.741000  
464.500000	65.221999  
465.000000	64.386000  
465.500000	64.559000  
466.000000	64.223000  
466.500000	63.571000  
467.000000	62.747000  
467.500000	63.106000  
468.000000	61.647000  
468.500000	62.618000  
469.000000	62.730000  
469.500000	61.437000  
470.000000	60.284000  
470.500000	60.736000  
471.000000	61.667000  
471.500000	59.813000  
472.000000	59.858000  
472.500000	59.564000  
473.000000	57.699000  
473.500000	57.032000  
474.000000	56.875000  
474.500000	56.869000  
475.000000	57.141000  
475.500000	58.294000  
476.000000	55.756000  
476.500000	55.215000  
477.000000	55.800000  
477.500000	56.455000  
478.000000	55.497000  
478.500000	54.756000  
479.000000	55.707000  
479.500000	53.905000  
480.000000	53.821000  
480.500000	52.346000  
481.000000	52.616000  
481.500000	52.226000  
482.000000	51.839000  
482.500000	50.868000  
483.000000	50.244000  
483.500000	51.224000  
484.000000	51.277000  
484.500000	49.929000  
485.000000	49.328000  
485.500000	51.134000  
486.000000	49.486000  
486.500000	48.585000  
487.000000	47.730000  
487.500000	47.586000  
488.000000	48.276000  
488.500000	46.852000  
489.000000	47.222000  
489.500000	46.577000  
490.000000	45.804000  
490.500000	45.635000  
491.000000	45.498000  
491.500000	44.808000  
492.000000	45.904000  
492.500000	44.023000  
493.000000	44.269000  
493.500000	43.648000  
494.000000	42.920000  
494.500000	42.448000  
495.000000	42.760000  
495.500000	42.700000  
496.000000	42.875000  
496.500000	41.693000  
497.000000	39.865000  
497.500000	40.103000  
498.000000	39.921000  
498.500000	38.671000  
499.000000	39.299000  
499.500000	37.936000  
500.000000	38.443000  
500.500000	37.590000  
501.000000	37.212000  
501.500000	36.903000  
502.000000	36.688000  
502.500000	36.776000  
503.000000	36.008000  
503.500000	36.437000  
504.000000	34.968000  
504.500000	35.320000  
505.000000	34.412000  
505.500000	33.899000  
506.000000	34.391000  
506.500000	34.317000  
507.000000	34.069000  
507.500000	33.547000  
508.000000	31.831000  
508.500000	31.581000  
509.000000	32.694000  
509.500000	32.265000  
510.000000	31.421000  
510.500000	30.803000  
511.000000	30.727000  
511.500000	31.152000  
512.000000	30.481000  
512.500000	29.527000  
513.000000	28.823000  
513.500000	28.196000  
514.000000	28.690000  
514.500000	28.109000  
515.000000	28.491000  
515.500000	27.460000  
516.000000	27.405000  
516.500000	27.436000  
517.000000	26.611000  
517.500000	27.232000  
518.000000	27.294000  
518.500000	26.324000  
519.000000	25.909000  
519.500000	26.776000  
520.000000	25.750000  
520.500000	25.045000  
521.000000	24.411000  
521.500000	24.424000  
522.000000	24.431000  
522.500000	24.181000  
523.000000	23.648000  
523.500000	23.572000  
524.000000	22.973000  
524.500000	21.950000  
525.000000	22.226000  
525.500000	21.864000  
526.000000	21.713000  
526.500000	21.403000  
527.000000	21.637000  
527.500000	21.950000  
528.000000	21.254000  
528.500000	20.260000  
529.000000	19.751000  
529.500000	20.033000  
530.000000	19.718000  
530.500000	19.668000  
531.000000	19.261000  
531.500000	18.779000  
532.000000	18.843000  
532.500000	18.515000  
533.000000	18.523000  
533.500000	18.039000  
534.000000	17.997000  
534.500000	16.987000  
535.000000	16.869000  
535.500000	17.104000  
536.000000	16.448000  
536.500000	15.934000  
537.000000	16.198000  
537.500000	16.111000  
538.000000	15.576000  
538.500000	16.225000  
539.000000	15.972000  
539.500000	15.482000  
540.000000	15.064000  
540.500000	14.872000  
541.000000	14.910000  
541.500000	15.063000  
542.000000	13.917000  
542.500000	13.547000  
543.000000	13.079000  
543.500000	12.889000  
544.000000	13.241000  
544.500000	13.026000  
545.000000	13.229000  
545.500000	13.312000  
546.000000	12.381000  
546.500000	11.864000  
547.000000	12.007000  
547.500000	12.487000  
548.000000	11.991000  
548.500000	11.721000  

