PE FL                   SPECTRUM    ASCII       PEDS        1.60        
  -1
0124SC~3.SP
19/01/24
12:58:05.00
19/01/24
12:58:05.00


548.500000
1









LS45
240.00
10.00
10.00
SCAN
1
16
100
100
0
600
0
1
0
1
7
ON
550 545 
0 0 0
#HDR
-1
-1
#GR
NM
INT 
0.00002384185791015625
0.0
230.000000
0.500000
638
8
786.010000
3.850000
#DATA
230.000000	4.864000   
230.500000	5.481000   
231.000000	6.096000   
231.500000	7.617000   
232.000000	9.032000   
232.500000	10.545000  
233.000000	13.362000  
233.500000	14.954000  
234.000000	17.185000  
234.500000	20.177000  
235.000000	23.136000  
235.500000	25.934000  
236.000000	28.710000  
236.500000	32.944000  
237.000000	34.237000  
237.500000	39.069000  
238.000000	43.393000  
238.500000	45.988000  
239.000000	49.903000  
239.500000	52.425000  
240.000000	55.625000  
240.500000	59.425000  
241.000000	61.722000  
241.500000	64.741000  
242.000000	65.788000  
242.500000	67.952000  
243.000000	68.367000  
243.500000	68.732000  
244.000000	70.419000  
244.500000	69.574000  
245.000000	70.977999  
245.500000	68.967000  
246.000000	67.694000  
246.500000	64.884000  
247.000000	61.274000  
247.500000	58.042000  
248.000000	58.636000  
248.500000	54.840000  
249.000000	52.099000  
249.500000	47.804000  
250.000000	44.343000  
250.500000	41.124000  
251.000000	39.677000  
251.500000	35.943000  
252.000000	32.723000  
252.500000	29.825000  
253.000000	28.182000  
253.500000	26.933000  
254.000000	25.211000  
254.500000	24.034000  
255.000000	23.000000  
255.500000	23.186000  
256.000000	21.864000  
256.500000	22.333000  
257.000000	22.786000  
257.500000	22.535000  
258.000000	22.818000  
258.500000	23.395000  
259.000000	26.022000  
259.500000	26.951000  
260.000000	27.940000  
260.500000	28.772000  
261.000000	30.804000  
261.500000	30.200000  
262.000000	30.374000  
262.500000	33.809000  
263.000000	35.443000  
263.500000	34.883000  
264.000000	34.097000  
264.500000	33.344000  
265.000000	33.956000  
265.500000	33.762000  
266.000000	32.972000  
266.500000	31.790000  
267.000000	32.944000  
267.500000	31.801000  
268.000000	29.432000  
268.500000	30.642000  
269.000000	28.025000  
269.500000	28.087000  
270.000000	24.959000  
270.500000	23.514000  
271.000000	22.496000  
271.500000	20.601000  
272.000000	18.708000  
272.500000	18.061000  
273.000000	17.186000  
273.500000	15.178000  
274.000000	13.554000  
274.500000	12.363000  
275.000000	11.441000  
275.500000	10.421000  
276.000000	8.669000   
276.500000	7.864000   
277.000000	7.640000   
277.500000	6.559000   
278.000000	6.725000   
278.500000	5.427000   
279.000000	4.597000   
279.500000	4.234000   
280.000000	4.110000   
280.500000	4.647000   
281.000000	4.265000   
281.500000	4.262000   
282.000000	4.674000   
282.500000	3.850000   
283.000000	4.323000   
283.500000	4.735000   
284.000000	5.149000   
284.500000	4.131000   
285.000000	4.892000   
285.500000	4.594000   
286.000000	4.355000   
286.500000	4.424000   
287.000000	4.720000   
287.500000	5.398000   
288.000000	5.468000   
288.500000	5.422000   
289.000000	5.977000   
289.500000	6.095000   
290.000000	5.691000   
290.500000	6.165000   
291.000000	5.682000   
291.500000	6.546000   
292.000000	6.960000   
292.500000	6.872000   
293.000000	7.325000   
293.500000	7.485000   
294.000000	6.902000   
294.500000	7.650000   
295.000000	7.475000   
295.500000	7.382000   
296.000000	7.794000   
296.500000	7.539000   
297.000000	8.145000   
297.500000	8.494000   
298.000000	8.441000   
298.500000	8.872999   
299.000000	9.414000   
299.500000	9.334000   
300.000000	9.957000   
300.500000	10.297000  
301.000000	10.320000  
301.500000	9.262000   
302.000000	9.541000   
302.500000	10.400000  
303.000000	10.767000  
303.500000	11.439000  
304.000000	10.929000  
304.500000	10.922000  
305.000000	11.717000  
305.500000	12.271000  
306.000000	13.538000  
306.500000	13.543000  
307.000000	12.829000  
307.500000	13.496000  
308.000000	13.251000  
308.500000	14.316000  
309.000000	14.276000  
309.500000	14.403000  
310.000000	14.821000  
310.500000	15.529000  
311.000000	15.909000  
311.500000	16.252000  
312.000000	15.396000  
312.500000	15.992000  
313.000000	17.523000  
313.500000	17.644000  
314.000000	17.740000  
314.500000	18.387000  
315.000000	19.451000  
315.500000	19.466000  
316.000000	19.911000  
316.500000	20.808000  
317.000000	21.011000  
317.500000	22.156000  
318.000000	22.483000  
318.500000	23.382000  
319.000000	24.020000  
319.500000	23.997000  
320.000000	25.535000  
320.500000	25.065000  
321.000000	25.052000  
321.500000	27.855000  
322.000000	28.262000  
322.500000	28.832000  
323.000000	29.487000  
323.500000	27.822000  
324.000000	29.769000  
324.500000	31.126000  
325.000000	33.991000  
325.500000	34.222000  
326.000000	35.415000  
326.500000	36.420000  
327.000000	36.973000  
327.500000	37.700000  
328.000000	38.713000  
328.500000	38.318000  
329.000000	41.322000  
329.500000	43.442000  
330.000000	44.679000  
330.500000	45.049000  
331.000000	46.837000  
331.500000	47.950000  
332.000000	48.033000  
332.500000	48.468000  
333.000000	48.849000  
333.500000	50.329000  
334.000000	52.293000  
334.500000	53.319000  
335.000000	54.203000  
335.500000	54.109000  
336.000000	55.518000  
336.500000	56.326000  
337.000000	59.658000  
337.500000	59.874000  
338.000000	59.931000  
338.500000	61.776000  
339.000000	64.407000  
339.500000	65.163000  
340.000000	64.620000  
340.500000	66.042000  
341.000000	66.575999  
341.500000	67.196000  
342.000000	70.352999  
342.500000	70.312000  
343.000000	71.366000  
343.500000	74.154000  
344.000000	73.976000  
344.500000	72.307000  
345.000000	74.849999  
345.500000	76.282000  
346.000000	77.770000  
346.500000	76.840000  
347.000000	78.459999  
347.500000	79.565000  
348.000000	78.688999  
348.500000	80.599000  
349.000000	80.907000  
349.500000	81.796000  
350.000000	83.143000  
350.500000	84.595000  
351.000000	85.560000  
351.500000	83.011000  
352.000000	86.953000  
352.500000	86.476000  
353.000000	82.905000  
353.500000	84.278000  
354.000000	84.764000  
354.500000	86.833000  
355.000000	86.553000  
355.500000	86.801000  
356.000000	87.489999  
356.500000	87.444000  
357.000000	86.662000  
357.500000	87.867000  
358.000000	89.688999  
358.500000	86.160000  
359.000000	85.331999  
359.500000	87.009000  
360.000000	87.364000  
360.500000	89.783000  
361.000000	89.151000  
361.500000	88.718000  
362.000000	89.512000  
362.500000	89.092000  
363.000000	88.546000  
363.500000	86.611999  
364.000000	89.357000  
364.500000	87.763000  
365.000000	88.145000  
365.500000	88.297000  
366.000000	83.904000  
366.500000	87.830000  
367.000000	85.848000  
367.500000	86.180000  
368.000000	87.860000  
368.500000	89.087999  
369.000000	87.553000  
369.500000	89.346000  
370.000000	87.047000  
370.500000	88.703999  
371.000000	88.396000  
371.500000	89.758000  
372.000000	90.197999  
372.500000	85.322999  
373.000000	89.744000  
373.500000	86.614000  
374.000000	86.039000  
374.500000	88.248000  
375.000000	87.252000  
375.500000	85.114000  
376.000000	85.459999  
376.500000	83.309000  
377.000000	88.025000  
377.500000	88.768000  
378.000000	86.899000  
378.500000	86.997000  
379.000000	88.164000  
379.500000	84.345000  
380.000000	85.690000  
380.500000	84.044000  
381.000000	85.587000  
381.500000	83.136000  
382.000000	84.712000  
382.500000	90.254000  
383.000000	84.506000  
383.500000	82.625000  
384.000000	82.143000  
384.500000	82.497000  
385.000000	81.242999  
385.500000	83.297000  
386.000000	83.770000  
386.500000	82.864999  
387.000000	80.363000  
387.500000	79.200000  
388.000000	77.506000  
388.500000	79.894000  
389.000000	79.634000  
389.500000	79.043000  
390.000000	76.540000  
390.500000	78.775000  
391.000000	77.492999  
391.500000	77.782000  
392.000000	77.555000  
392.500000	77.312000  
393.000000	76.504000  
393.500000	75.165000  
394.000000	75.822000  
394.500000	74.649000  
395.000000	72.217000  
395.500000	74.346999  
396.000000	75.380000  
396.500000	71.748000  
397.000000	73.526000  
397.500000	72.181000  
398.000000	72.863000  
398.500000	73.111999  
399.000000	71.665000  
399.500000	72.154000  
400.000000	70.121000  
400.500000	67.929000  
401.000000	71.738000  
401.500000	73.254000  
402.000000	72.572000  
402.500000	69.758000  
403.000000	68.230999  
403.500000	70.480999  
404.000000	69.630000  
404.500000	68.398000  
405.000000	68.733000  
405.500000	70.074000  
406.000000	71.133000  
406.500000	69.848000  
407.000000	67.364999  
407.500000	68.425000  
408.000000	69.015000  
408.500000	69.054000  
409.000000	68.895000  
409.500000	70.610000  
410.000000	69.809000  
410.500000	68.819999  
411.000000	69.170000  
411.500000	70.086000  
412.000000	69.378000  
412.500000	67.662000  
413.000000	66.449000  
413.500000	66.833000  
414.000000	64.927000  
414.500000	64.928000  
415.000000	66.674000  
415.500000	66.116000  
416.000000	67.513000  
416.500000	65.683000  
417.000000	67.057000  
417.500000	67.188999  
418.000000	67.674000  
418.500000	66.301000  
419.000000	64.663000  
419.500000	65.062000  
420.000000	65.138000  
420.500000	64.869000  
421.000000	64.636000  
421.500000	64.328999  
422.000000	65.751000  
422.500000	65.773000  
423.000000	63.192000  
423.500000	65.261000  
424.000000	64.262000  
424.500000	65.941000  
425.000000	65.446000  
425.500000	67.099000  
426.000000	65.209999  
426.500000	65.259000  
427.000000	66.212999  
427.500000	65.188000  
428.000000	65.000000  
428.500000	64.060000  
429.000000	65.276000  
429.500000	66.514000  
430.000000	64.750000  
430.500000	65.464000  
431.000000	64.923000  
431.500000	65.802000  
432.000000	67.411000  
432.500000	68.004000  
433.000000	69.712999  
433.500000	67.057000  
434.000000	66.840999  
434.500000	68.305000  
435.000000	67.651000  
435.500000	67.543000  
436.000000	65.328000  
436.500000	68.193000  
437.000000	68.741000  
437.500000	66.575000  
438.000000	68.685000  
438.500000	65.065000  
439.000000	65.979000  
439.500000	66.828999  
440.000000	67.754000  
440.500000	67.697999  
441.000000	67.629000  
441.500000	67.724000  
442.000000	67.616000  
442.500000	66.311000  
443.000000	69.453999  
443.500000	67.123000  
444.000000	68.480000  
444.500000	68.415000  
445.000000	66.686000  
445.500000	66.520000  
446.000000	67.238000  
446.500000	68.544000  
447.000000	68.296000  
447.500000	65.898000  
448.000000	65.950000  
448.500000	66.136000  
449.000000	65.738000  
449.500000	64.955000  
450.000000	64.375000  
450.500000	63.069000  
451.000000	68.125000  
451.500000	66.625000  
452.000000	65.889000  
452.500000	65.147000  
453.000000	64.669000  
453.500000	64.393000  
454.000000	65.168000  
454.500000	64.752000  
455.000000	64.813999  
455.500000	64.138000  
456.000000	62.676000  
456.500000	62.774000  
457.000000	62.998000  
457.500000	62.436000  
458.000000	62.631000  
458.500000	62.547000  
459.000000	63.291000  
459.500000	61.837000  
460.000000	60.765000  
460.500000	63.195000  
461.000000	59.557000  
461.500000	60.010000  
462.000000	62.532000  
462.500000	63.529000  
463.000000	60.820000  
463.500000	59.837000  
464.000000	62.253000  
464.500000	62.402000  
465.000000	62.972000  
465.500000	64.470000  
466.000000	66.474999  
466.500000	67.825000  
467.000000	68.932000  
467.500000	70.873000  
468.000000	73.191000  
468.500000	76.018000  
469.000000	81.325000  
469.500000	84.915000  
470.000000	90.499000  
470.500000	96.628000  
471.000000	103.836000 
471.500000	112.186000 
472.000000	121.443000 
472.500000	132.324000 
473.000000	151.406000 
473.500000	160.321000 
474.000000	174.713000 
474.500000	192.192000 
475.000000	215.725000 
475.500000	234.991000 
476.000000	264.069000 
476.500000	274.859000 
477.000000	299.313000 
477.500000	325.296000 
478.000000	360.235000 
478.500000	392.750000 
479.000000	416.138000 
479.500000	441.167000 
480.000000	460.674000 
480.500000	482.709000 
481.000000	514.966000 
481.500000	548.912000 
482.000000	584.224000 
482.500000	607.728000 
483.000000	623.755000 
483.500000	657.044000 
484.000000	682.743000 
484.500000	713.381999 
485.000000	727.176000 
485.500000	745.356000 
486.000000	744.868000 
486.500000	755.977000 
487.000000	769.670000 
487.500000	780.193000 
488.000000	783.472000 
488.500000	775.009000 
489.000000	786.010000 
489.500000	773.316000 
490.000000	775.035999 
490.500000	775.655000 
491.000000	769.955000 
491.500000	755.116000 
492.000000	747.678000 
492.500000	728.942000 
493.000000	721.111000 
493.500000	686.238000 
494.000000	667.860000 
494.500000	638.663000 
495.000000	603.506999 
495.500000	572.388000 
496.000000	532.723000 
496.500000	499.671000 
497.000000	462.601000 
497.500000	438.686000 
498.000000	407.621000 
498.500000	380.859000 
499.000000	356.465000 
499.500000	322.187000 
500.000000	301.569000 
500.500000	271.465000 
501.000000	248.915000 
501.500000	223.825000 
502.000000	200.993000 
502.500000	178.947000 
503.000000	156.276000 
503.500000	142.561000 
504.000000	122.301000 
504.500000	107.914000 
505.000000	93.510000  
505.500000	80.605999  
506.000000	73.378000  
506.500000	70.923000  
507.000000	66.971999  
507.500000	60.898000  
508.000000	58.992000  
508.500000	56.919000  
509.000000	55.385000  
509.500000	54.844000  
510.000000	56.961000  
510.500000	56.594000  
511.000000	57.096000  
511.500000	58.445000  
512.000000	58.814000  
512.500000	58.840000  
513.000000	63.793000  
513.500000	62.432000  
514.000000	63.365000  
514.500000	64.764000  
515.000000	66.068000  
515.500000	68.334999  
516.000000	72.002000  
516.500000	71.875000  
517.000000	72.549000  
517.500000	75.827000  
518.000000	79.607000  
518.500000	80.682000  
519.000000	84.406000  
519.500000	89.836000  
520.000000	87.471000  
520.500000	90.480999  
521.000000	94.756000  
521.500000	99.861000  
522.000000	104.296000 
522.500000	104.074000 
523.000000	106.484000 
523.500000	111.278000 
524.000000	113.773000 
524.500000	113.776000 
525.000000	118.681000 
525.500000	121.437000 
526.000000	118.075000 
526.500000	122.558000 
527.000000	123.571000 
527.500000	124.336000 
528.000000	125.862000 
528.500000	127.261000 
529.000000	126.084000 
529.500000	124.663000 
530.000000	127.806000 
530.500000	128.218000 
531.000000	122.928000 
531.500000	121.341000 
532.000000	121.175000 
532.500000	122.030000 
533.000000	120.754000 
533.500000	116.291000 
534.000000	113.725000 
534.500000	109.590000 
535.000000	105.053000 
535.500000	105.560000 
536.000000	104.251000 
536.500000	99.727999  
537.000000	96.438999  
537.500000	95.389000  
538.000000	92.577000  
538.500000	87.089000  
539.000000	87.200000  
539.500000	82.875000  
540.000000	77.955000  
540.500000	75.223000  
541.000000	71.061000  
541.500000	67.288000  
542.000000	67.052000  
542.500000	61.669000  
543.000000	60.755000  
543.500000	56.654000  
544.000000	54.339000  
544.500000	51.354000  
545.000000	48.001000  
545.500000	44.752000  
546.000000	42.720000  
546.500000	39.392000  
547.000000	36.756000  
547.500000	34.147000  
548.000000	32.413000  
548.500000	30.414000  

