PE FL                   SPECTRUM    ASCII       PEDS        1.60        
  -1
0149F6~1.SP
19/01/24
13:07:53.00
19/01/24
13:07:53.00


548.500000
1









LS45
305.00
10.00
10.00
SCAN
1
16
100
100
0
600
0
1
0
1
7
ON
550 545 
0 0 0
#HDR
-1
-1
#GR
NM
INT 
0.00002384185791015625
0.0
230.000000
0.500000
638
8
999.999000
0.685000
#DATA
230.000000	1.075000   
230.500000	0.974000   
231.000000	0.740000   
231.500000	0.778000   
232.000000	0.796000   
232.500000	0.845000   
233.000000	0.872000   
233.500000	0.767000   
234.000000	0.685000   
234.500000	0.730000   
235.000000	0.735000   
235.500000	0.971000   
236.000000	0.929000   
236.500000	0.837000   
237.000000	0.956000   
237.500000	0.986000   
238.000000	0.864000   
238.500000	0.932000   
239.000000	0.808000   
239.500000	0.917000   
240.000000	1.027000   
240.500000	0.966000   
241.000000	0.934000   
241.500000	0.710000   
242.000000	0.992000   
242.500000	0.844000   
243.000000	1.016000   
243.500000	0.858000   
244.000000	0.829000   
244.500000	0.830000   
245.000000	1.085000   
245.500000	1.010000   
246.000000	1.019000   
246.500000	1.058000   
247.000000	0.955000   
247.500000	0.878000   
248.000000	0.983000   
248.500000	1.033000   
249.000000	1.065000   
249.500000	1.081000   
250.000000	1.002000   
250.500000	0.946000   
251.000000	1.112000   
251.500000	1.002000   
252.000000	1.171000   
252.500000	1.122000   
253.000000	1.140000   
253.500000	1.351000   
254.000000	1.294000   
254.500000	1.350000   
255.000000	1.295000   
255.500000	1.322000   
256.000000	1.292000   
256.500000	1.236000   
257.000000	1.167000   
257.500000	1.458000   
258.000000	1.432000   
258.500000	1.423000   
259.000000	1.521000   
259.500000	1.527000   
260.000000	1.501000   
260.500000	1.650000   
261.000000	1.540000   
261.500000	1.590000   
262.000000	1.677000   
262.500000	1.676000   
263.000000	1.872000   
263.500000	1.679000   
264.000000	1.877000   
264.500000	1.814000   
265.000000	1.977000   
265.500000	2.066000   
266.000000	2.145000   
266.500000	1.975000   
267.000000	2.051000   
267.500000	2.074000   
268.000000	2.493000   
268.500000	2.399000   
269.000000	2.564000   
269.500000	2.448000   
270.000000	2.588000   
270.500000	2.732000   
271.000000	2.508000   
271.500000	2.487000   
272.000000	2.927000   
272.500000	2.877000   
273.000000	2.587000   
273.500000	2.980000   
274.000000	3.005000   
274.500000	2.984000   
275.000000	3.470000   
275.500000	3.222000   
276.000000	3.332000   
276.500000	3.368000   
277.000000	3.499000   
277.500000	3.591000   
278.000000	3.981000   
278.500000	4.013000   
279.000000	4.427000   
279.500000	4.345000   
280.000000	4.728000   
280.500000	5.060000   
281.000000	5.555000   
281.500000	6.246000   
282.000000	7.730000   
282.500000	9.362000   
283.000000	11.502000  
283.500000	13.790000  
284.000000	17.288000  
284.500000	23.165000  
285.000000	27.874000  
285.500000	36.192000  
286.000000	43.633000  
286.500000	55.527000  
287.000000	68.876000  
287.500000	84.352000  
288.000000	100.215000 
288.500000	120.777000 
289.000000	141.819000 
289.500000	166.229000 
290.000000	197.894000 
290.500000	227.187000 
291.000000	264.807000 
291.500000	297.620000 
292.000000	345.393000 
292.500000	380.180000 
293.000000	427.723000 
293.500000	470.332000 
294.000000	519.375000 
294.500000	564.240000 
295.000000	611.329000 
295.500000	661.726000 
296.000000	717.870000 
296.500000	775.102000 
297.000000	820.677000 
297.500000	864.652000 
298.000000	893.277000 
298.500000	943.316000 
299.000000	971.883000 
299.500000	999.999000 
300.000000	999.999000 
300.500000	999.999000 
301.000000	999.999000 
301.500000	999.999000 
302.000000	999.999000 
302.500000	999.999000 
303.000000	999.999000 
303.500000	999.999000 
304.000000	999.999000 
304.500000	999.999000 
305.000000	999.999000 
305.500000	999.999000 
306.000000	999.999000 
306.500000	975.516000 
307.000000	936.394000 
307.500000	889.042000 
308.000000	846.181000 
308.500000	790.362000 
309.000000	742.075000 
309.500000	682.729000 
310.000000	640.376000 
310.500000	578.726000 
311.000000	527.208999 
311.500000	480.500000 
312.000000	437.319000 
312.500000	388.449000 
313.000000	346.492000 
313.500000	301.580000 
314.000000	263.747000 
314.500000	222.872000 
315.000000	193.807000 
315.500000	157.203000 
316.000000	137.673000 
316.500000	118.359000 
317.000000	100.705000 
317.500000	85.946000  
318.000000	72.430000  
318.500000	61.572000  
319.000000	52.683000  
319.500000	48.388000  
320.000000	43.472000  
320.500000	40.531000  
321.000000	38.871000  
321.500000	39.153000  
322.000000	38.007000  
322.500000	39.543000  
323.000000	41.109000  
323.500000	45.577000  
324.000000	48.079000  
324.500000	51.005000  
325.000000	55.730000  
325.500000	57.978000  
326.000000	61.965000  
326.500000	65.549000  
327.000000	69.605000  
327.500000	74.504000  
328.000000	78.514000  
328.500000	83.641000  
329.000000	87.700999  
329.500000	93.738000  
330.000000	98.913000  
330.500000	102.044000 
331.000000	107.556000 
331.500000	111.305000 
332.000000	115.576000 
332.500000	117.494000 
333.000000	119.226000 
333.500000	124.883000 
334.000000	127.129000 
334.500000	129.602000 
335.000000	132.829000 
335.500000	132.786000 
336.000000	133.242000 
336.500000	135.927000 
337.000000	133.953000 
337.500000	133.032000 
338.000000	133.518000 
338.500000	132.310000 
339.000000	130.317000 
339.500000	128.686000 
340.000000	126.935000 
340.500000	125.078000 
341.000000	124.104000 
341.500000	120.365000 
342.000000	118.812000 
342.500000	115.682000 
343.000000	114.651000 
343.500000	110.876000 
344.000000	108.956000 
344.500000	105.197000 
345.000000	101.826000 
345.500000	100.248000 
346.000000	98.970000  
346.500000	97.558000  
347.000000	91.501000  
347.500000	90.377000  
348.000000	89.590999  
348.500000	86.599000  
349.000000	83.644000  
349.500000	83.255000  
350.000000	81.900000  
350.500000	81.236999  
351.000000	78.767000  
351.500000	78.884000  
352.000000	77.907000  
352.500000	78.048000  
353.000000	76.563999  
353.500000	76.735000  
354.000000	77.352000  
354.500000	77.924000  
355.000000	77.577000  
355.500000	75.965000  
356.000000	76.174000  
356.500000	76.758000  
357.000000	77.736999  
357.500000	77.894000  
358.000000	77.273000  
358.500000	77.994000  
359.000000	78.998000  
359.500000	77.571000  
360.000000	78.840000  
360.500000	79.933000  
361.000000	80.664000  
361.500000	79.843000  
362.000000	78.509000  
362.500000	79.058000  
363.000000	79.367000  
363.500000	80.375000  
364.000000	83.236000  
364.500000	82.238000  
365.000000	81.571000  
365.500000	82.387000  
366.000000	82.452000  
366.500000	85.096000  
367.000000	83.322999  
367.500000	84.569999  
368.000000	85.813000  
368.500000	84.784000  
369.000000	85.647000  
369.500000	85.771000  
370.000000	86.491000  
370.500000	87.205000  
371.000000	87.113000  
371.500000	87.497000  
372.000000	86.953999  
372.500000	87.477999  
373.000000	87.587000  
373.500000	88.977000  
374.000000	89.813999  
374.500000	89.159000  
375.000000	92.361000  
375.500000	92.423000  
376.000000	92.811000  
376.500000	93.138000  
377.000000	93.227000  
377.500000	90.680000  
378.000000	92.232000  
378.500000	93.316000  
379.000000	93.038000  
379.500000	94.316999  
380.000000	94.800000  
380.500000	93.907000  
381.000000	93.389000  
381.500000	95.608000  
382.000000	93.986999  
382.500000	94.874000  
383.000000	96.209999  
383.500000	96.605999  
384.000000	95.212000  
384.500000	92.394000  
385.000000	93.688000  
385.500000	94.381000  
386.000000	94.009000  
386.500000	95.145000  
387.000000	93.259000  
387.500000	93.811000  
388.000000	95.712000  
388.500000	94.334999  
389.000000	93.877000  
389.500000	95.397000  
390.000000	95.528000  
390.500000	96.712000  
391.000000	95.522000  
391.500000	93.732000  
392.000000	94.371000  
392.500000	94.408000  
393.000000	95.688000  
393.500000	94.086000  
394.000000	93.355999  
394.500000	93.580000  
395.000000	93.549000  
395.500000	93.813000  
396.000000	92.230999  
396.500000	93.757000  
397.000000	93.423000  
397.500000	93.962999  
398.000000	93.305000  
398.500000	93.501000  
399.000000	92.872000  
399.500000	94.101000  
400.000000	93.839000  
400.500000	92.768000  
401.000000	92.200999  
401.500000	93.199000  
402.000000	92.364000  
402.500000	92.706000  
403.000000	92.300000  
403.500000	91.801000  
404.000000	92.930000  
404.500000	93.590999  
405.000000	92.030000  
405.500000	90.148000  
406.000000	92.250000  
406.500000	93.003000  
407.000000	92.055000  
407.500000	92.298000  
408.000000	91.923000  
408.500000	91.581000  
409.000000	90.986999  
409.500000	89.748000  
410.000000	89.464000  
410.500000	89.509000  
411.000000	89.915000  
411.500000	89.803000  
412.000000	90.920000  
412.500000	87.477000  
413.000000	88.072000  
413.500000	90.084999  
414.000000	87.254000  
414.500000	85.645000  
415.000000	85.380000  
415.500000	85.839000  
416.000000	85.468999  
416.500000	84.459000  
417.000000	84.018000  
417.500000	83.223000  
418.000000	83.712999  
418.500000	81.614999  
419.000000	80.717000  
419.500000	82.693000  
420.000000	80.242999  
420.500000	79.580000  
421.000000	80.819999  
421.500000	81.098000  
422.000000	79.678000  
422.500000	78.849000  
423.000000	77.867000  
423.500000	76.944000  
424.000000	77.223000  
424.500000	75.358999  
425.000000	75.078999  
425.500000	75.628000  
426.000000	76.355999  
426.500000	74.137000  
427.000000	73.799000  
427.500000	73.046000  
428.000000	73.864000  
428.500000	70.506000  
429.000000	71.181000  
429.500000	71.819999  
430.000000	70.593999  
430.500000	70.071000  
431.000000	70.684000  
431.500000	69.000000  
432.000000	69.699000  
432.500000	69.566999  
433.000000	68.400000  
433.500000	69.557000  
434.000000	69.428000  
434.500000	68.136000  
435.000000	68.995000  
435.500000	68.462000  
436.000000	67.877000  
436.500000	66.282000  
437.000000	65.360000  
437.500000	65.922000  
438.000000	64.671000  
438.500000	65.245000  
439.000000	66.238000  
439.500000	66.050000  
440.000000	64.858000  
440.500000	65.370000  
441.000000	63.877000  
441.500000	63.674000  
442.000000	62.958000  
442.500000	63.802000  
443.000000	62.208000  
443.500000	62.459000  
444.000000	61.477000  
444.500000	61.201000  
445.000000	61.316000  
445.500000	60.229000  
446.000000	59.192000  
446.500000	59.186000  
447.000000	60.279000  
447.500000	57.116000  
448.000000	59.769000  
448.500000	58.053000  
449.000000	58.454000  
449.500000	58.717000  
450.000000	55.897000  
450.500000	56.291000  
451.000000	54.580000  
451.500000	56.056000  
452.000000	54.615000  
452.500000	54.059000  
453.000000	54.449000  
453.500000	53.393000  
454.000000	53.264000  
454.500000	52.325000  
455.000000	52.163000  
455.500000	52.931000  
456.000000	51.480000  
456.500000	50.285000  
457.000000	48.551000  
457.500000	49.946000  
458.000000	50.552000  
458.500000	50.604000  
459.000000	49.607000  
459.500000	48.710000  
460.000000	47.058000  
460.500000	47.377000  
461.000000	47.769000  
461.500000	47.101000  
462.000000	46.074000  
462.500000	45.327000  
463.000000	46.108000  
463.500000	44.801000  
464.000000	45.312000  
464.500000	44.477000  
465.000000	43.973000  
465.500000	43.116000  
466.000000	42.651000  
466.500000	42.678000  
467.000000	42.465000  
467.500000	41.983000  
468.000000	40.889000  
468.500000	41.268000  
469.000000	40.821000  
469.500000	40.031000  
470.000000	39.263000  
470.500000	38.824000  
471.000000	39.362000  
471.500000	39.265000  
472.000000	38.042000  
472.500000	38.179000  
473.000000	37.935000  
473.500000	37.341000  
474.000000	37.209000  
474.500000	37.464000  
475.000000	37.937000  
475.500000	36.710000  
476.000000	35.512000  
476.500000	36.228000  
477.000000	36.712000  
477.500000	36.016000  
478.000000	34.699000  
478.500000	34.004000  
479.000000	34.777000  
479.500000	33.956000  
480.000000	33.740000  
480.500000	33.576000  
481.000000	32.751000  
481.500000	32.480000  
482.000000	32.281000  
482.500000	32.819000  
483.000000	32.110000  
483.500000	31.748000  
484.000000	31.535000  
484.500000	30.695000  
485.000000	31.221000  
485.500000	30.819000  
486.000000	30.521000  
486.500000	30.731000  
487.000000	30.403000  
487.500000	28.997000  
488.000000	28.796000  
488.500000	29.011000  
489.000000	28.836000  
489.500000	27.421000  
490.000000	27.434000  
490.500000	28.203000  
491.000000	27.841000  
491.500000	26.829000  
492.000000	27.247000  
492.500000	26.270000  
493.000000	26.639000  
493.500000	27.511000  
494.000000	26.797000  
494.500000	26.108000  
495.000000	26.061000  
495.500000	25.245000  
496.000000	25.110000  
496.500000	24.147000  
497.000000	24.328000  
497.500000	24.162000  
498.000000	23.776000  
498.500000	23.929000  
499.000000	23.372000  
499.500000	23.068000  
500.000000	22.480000  
500.500000	22.417000  
501.000000	22.900000  
501.500000	22.777000  
502.000000	21.504000  
502.500000	20.938000  
503.000000	22.348000  
503.500000	21.052000  
504.000000	20.200000  
504.500000	20.191000  
505.000000	20.515000  
505.500000	20.722000  
506.000000	19.718000  
506.500000	19.179000  
507.000000	19.529000  
507.500000	18.866000  
508.000000	19.341000  
508.500000	19.223000  
509.000000	18.667000  
509.500000	18.744000  
510.000000	18.351000  
510.500000	18.028000  
511.000000	17.792000  
511.500000	17.079000  
512.000000	17.577000  
512.500000	17.618000  
513.000000	17.149000  
513.500000	16.870000  
514.000000	17.453000  
514.500000	17.368000  
515.000000	16.901000  
515.500000	16.947000  
516.000000	17.059000  
516.500000	17.372000  
517.000000	16.230000  
517.500000	16.266000  
518.000000	15.988000  
518.500000	16.136000  
519.000000	14.946000  
519.500000	14.746000  
520.000000	14.618000  
520.500000	14.944000  
521.000000	15.574000  
521.500000	14.545000  
522.000000	14.485000  
522.500000	14.404000  
523.000000	14.559000  
523.500000	14.735000  
524.000000	14.120000  
524.500000	13.898000  
525.000000	13.603000  
525.500000	13.284000  
526.000000	13.257000  
526.500000	13.056000  
527.000000	12.407000  
527.500000	12.981000  
528.000000	12.680000  
528.500000	12.137000  
529.000000	12.387000  
529.500000	12.748000  
530.000000	12.722000  
530.500000	12.501000  
531.000000	11.949000  
531.500000	12.002000  
532.000000	11.597000  
532.500000	11.751000  
533.000000	11.429000  
533.500000	11.052000  
534.000000	10.885000  
534.500000	11.087000  
535.000000	11.086000  
535.500000	10.491000  
536.000000	10.722000  
536.500000	11.110000  
537.000000	10.679000  
537.500000	10.370000  
538.000000	10.562000  
538.500000	10.266000  
539.000000	10.757000  
539.500000	9.834000   
540.000000	10.071000  
540.500000	9.436000   
541.000000	9.858000   
541.500000	10.090000  
542.000000	9.818000   
542.500000	9.792999   
543.000000	10.180000  
543.500000	9.315000   
544.000000	9.427000   
544.500000	9.336000   
545.000000	9.209000   
545.500000	8.627000   
546.000000	9.016000   
546.500000	9.282999   
547.000000	8.949000   
547.500000	8.795999   
548.000000	9.051000   
548.500000	8.660000   

