PE FL                   SPECTRUM    ASCII       PEDS        1.60        
  -1
014907~1.SP
19/01/24
13:36:33.00
19/01/24
13:36:33.00


548.500000
1









LS45
495.00
10.00
10.00
SCAN
1
16
100
100
0
600
0
1
0
1
7
ON
550 545 
0 0 0
#HDR
-1
-1
#GR
NM
INT 
0.00002384185791015625
0.0
230.000000
0.500000
638
8
563.763000
0.057000
#DATA
230.000000	0.057000   
230.500000	0.074000   
231.000000	0.096000   
231.500000	0.092000   
232.000000	0.075000   
232.500000	0.149000   
233.000000	0.190000   
233.500000	0.210000   
234.000000	0.281000   
234.500000	0.286000   
235.000000	0.425000   
235.500000	0.432000   
236.000000	0.610000   
236.500000	0.687999   
237.000000	0.789000   
237.500000	0.772000   
238.000000	0.911000   
238.500000	1.083000   
239.000000	1.294000   
239.500000	1.451000   
240.000000	1.498000   
240.500000	1.670000   
241.000000	1.719000   
241.500000	1.837000   
242.000000	2.058000   
242.500000	2.189000   
243.000000	2.283000   
243.500000	2.367000   
244.000000	2.367000   
244.500000	2.465000   
245.000000	2.680000   
245.500000	2.829000   
246.000000	2.637000   
246.500000	2.699000   
247.000000	2.610000   
247.500000	2.634000   
248.000000	2.341000   
248.500000	2.555000   
249.000000	2.321000   
249.500000	2.115000   
250.000000	2.035000   
250.500000	1.949000   
251.000000	1.825000   
251.500000	1.658000   
252.000000	1.351000   
252.500000	1.282000   
253.000000	1.100000   
253.500000	1.182000   
254.000000	0.969000   
254.500000	0.847000   
255.000000	0.846000   
255.500000	0.624000   
256.000000	0.574000   
256.500000	0.617000   
257.000000	0.535000   
257.500000	0.481000   
258.000000	0.420000   
258.500000	0.396000   
259.000000	0.467000   
259.500000	0.550000   
260.000000	0.554000   
260.500000	0.561000   
261.000000	0.590000   
261.500000	0.642000   
262.000000	0.796000   
262.500000	0.756000   
263.000000	0.797000   
263.500000	0.754000   
264.000000	0.780000   
264.500000	0.747000   
265.000000	0.942999   
265.500000	1.137000   
266.000000	1.162000   
266.500000	1.152000   
267.000000	1.048000   
267.500000	1.084000   
268.000000	1.136000   
268.500000	1.147000   
269.000000	1.302000   
269.500000	1.089000   
270.000000	1.118000   
270.500000	1.114000   
271.000000	0.984000   
271.500000	1.042000   
272.000000	1.047000   
272.500000	0.870000   
273.000000	0.707000   
273.500000	0.762000   
274.000000	0.694000   
274.500000	0.625000   
275.000000	0.580000   
275.500000	0.539000   
276.000000	0.479000   
276.500000	0.433000   
277.000000	0.381000   
277.500000	0.335000   
278.000000	0.330000   
278.500000	0.293000   
279.000000	0.272000   
279.500000	0.256000   
280.000000	0.240000   
280.500000	0.176000   
281.000000	0.199000   
281.500000	0.110000   
282.000000	0.115000   
282.500000	0.145000   
283.000000	0.151000   
283.500000	0.192000   
284.000000	0.150000   
284.500000	0.140000   
285.000000	0.134000   
285.500000	0.235000   
286.000000	0.153000   
286.500000	0.150000   
287.000000	0.216000   
287.500000	0.160000   
288.000000	0.215000   
288.500000	0.222000   
289.000000	0.182000   
289.500000	0.167000   
290.000000	0.218000   
290.500000	0.170000   
291.000000	0.173000   
291.500000	0.182000   
292.000000	0.233000   
292.500000	0.196000   
293.000000	0.246000   
293.500000	0.192000   
294.000000	0.193000   
294.500000	0.194000   
295.000000	0.197000   
295.500000	0.269000   
296.000000	0.265000   
296.500000	0.268000   
297.000000	0.243000   
297.500000	0.279000   
298.000000	0.365000   
298.500000	0.254000   
299.000000	0.262000   
299.500000	0.276000   
300.000000	0.283000   
300.500000	0.323000   
301.000000	0.279000   
301.500000	0.241000   
302.000000	0.277000   
302.500000	0.315000   
303.000000	0.398000   
303.500000	0.320000   
304.000000	0.363000   
304.500000	0.312000   
305.000000	0.302000   
305.500000	0.360000   
306.000000	0.323000   
306.500000	0.351000   
307.000000	0.398000   
307.500000	0.371000   
308.000000	0.473000   
308.500000	0.364000   
309.000000	0.381000   
309.500000	0.424000   
310.000000	0.486000   
310.500000	0.483000   
311.000000	0.506000   
311.500000	0.575000   
312.000000	0.510000   
312.500000	0.376000   
313.000000	0.442000   
313.500000	0.480000   
314.000000	0.538000   
314.500000	0.516000   
315.000000	0.605000   
315.500000	0.517000   
316.000000	0.539000   
316.500000	0.594000   
317.000000	0.611000   
317.500000	0.501000   
318.000000	0.514000   
318.500000	0.640000   
319.000000	0.592000   
319.500000	0.622000   
320.000000	0.652000   
320.500000	0.533000   
321.000000	0.689999   
321.500000	0.666000   
322.000000	0.765000   
322.500000	0.810000   
323.000000	0.765000   
323.500000	0.890000   
324.000000	0.902000   
324.500000	0.820000   
325.000000	0.810000   
325.500000	0.935000   
326.000000	0.955000   
326.500000	0.928000   
327.000000	0.919000   
327.500000	1.032000   
328.000000	1.162000   
328.500000	1.040000   
329.000000	0.984000   
329.500000	1.059000   
330.000000	1.131000   
330.500000	1.125000   
331.000000	1.167000   
331.500000	1.249000   
332.000000	1.255000   
332.500000	1.325000   
333.000000	1.256000   
333.500000	1.447000   
334.000000	1.354000   
334.500000	1.568000   
335.000000	1.552000   
335.500000	1.484000   
336.000000	1.466000   
336.500000	1.557000   
337.000000	1.671000   
337.500000	1.520000   
338.000000	1.837000   
338.500000	1.640000   
339.000000	1.820000   
339.500000	1.515000   
340.000000	1.678000   
340.500000	1.680000   
341.000000	1.707000   
341.500000	1.838000   
342.000000	1.849000   
342.500000	1.793000   
343.000000	2.038000   
343.500000	2.054000   
344.000000	1.819000   
344.500000	1.760000   
345.000000	1.976000   
345.500000	2.111000   
346.000000	2.183000   
346.500000	2.159000   
347.000000	2.262000   
347.500000	2.023000   
348.000000	2.128000   
348.500000	1.965000   
349.000000	2.108000   
349.500000	2.218000   
350.000000	2.232000   
350.500000	2.343000   
351.000000	2.235000   
351.500000	2.232000   
352.000000	2.252000   
352.500000	2.056000   
353.000000	2.276000   
353.500000	2.459000   
354.000000	2.585000   
354.500000	2.588000   
355.000000	2.539000   
355.500000	2.537000   
356.000000	2.234000   
356.500000	2.298000   
357.000000	2.471000   
357.500000	2.379000   
358.000000	2.376000   
358.500000	2.558000   
359.000000	2.270000   
359.500000	2.406000   
360.000000	2.471000   
360.500000	2.518000   
361.000000	2.395000   
361.500000	2.402000   
362.000000	2.595000   
362.500000	2.392000   
363.000000	2.171000   
363.500000	2.189000   
364.000000	2.504000   
364.500000	2.303000   
365.000000	2.291000   
365.500000	2.298000   
366.000000	2.197000   
366.500000	2.216000   
367.000000	2.338000   
367.500000	2.276000   
368.000000	2.518000   
368.500000	2.561000   
369.000000	2.364000   
369.500000	2.537000   
370.000000	2.464000   
370.500000	2.408000   
371.000000	2.458000   
371.500000	2.613000   
372.000000	2.505000   
372.500000	2.678000   
373.000000	2.423000   
373.500000	2.331000   
374.000000	2.606000   
374.500000	2.404000   
375.000000	2.333000   
375.500000	2.421000   
376.000000	2.412000   
376.500000	2.454000   
377.000000	2.413000   
377.500000	2.372000   
378.000000	2.279000   
378.500000	2.485000   
379.000000	2.500000   
379.500000	2.484000   
380.000000	2.364000   
380.500000	2.523000   
381.000000	2.397000   
381.500000	2.284000   
382.000000	2.541000   
382.500000	2.386000   
383.000000	2.026000   
383.500000	2.386000   
384.000000	2.432000   
384.500000	2.212000   
385.000000	2.156000   
385.500000	2.418000   
386.000000	2.392000   
386.500000	2.277000   
387.000000	2.385000   
387.500000	2.354000   
388.000000	2.229000   
388.500000	2.371000   
389.000000	2.212000   
389.500000	2.362000   
390.000000	2.494000   
390.500000	2.211000   
391.000000	2.304000   
391.500000	2.129000   
392.000000	2.230000   
392.500000	2.268000   
393.000000	2.426000   
393.500000	2.306000   
394.000000	2.283000   
394.500000	2.086000   
395.000000	2.307000   
395.500000	2.372000   
396.000000	2.119000   
396.500000	2.176000   
397.000000	2.181000   
397.500000	2.179000   
398.000000	2.209000   
398.500000	2.278000   
399.000000	2.127000   
399.500000	2.174000   
400.000000	2.090000   
400.500000	2.264000   
401.000000	2.212000   
401.500000	2.461000   
402.000000	2.177000   
402.500000	2.218000   
403.000000	2.215000   
403.500000	2.114000   
404.000000	2.233000   
404.500000	2.134000   
405.000000	2.331000   
405.500000	2.245000   
406.000000	2.278000   
406.500000	2.219000   
407.000000	2.223000   
407.500000	2.306000   
408.000000	2.415000   
408.500000	2.097000   
409.000000	2.107000   
409.500000	2.158000   
410.000000	2.024000   
410.500000	1.961000   
411.000000	2.148000   
411.500000	2.146000   
412.000000	2.085000   
412.500000	2.189000   
413.000000	2.211000   
413.500000	2.106000   
414.000000	2.285000   
414.500000	2.199000   
415.000000	2.164000   
415.500000	2.172000   
416.000000	2.317000   
416.500000	2.086000   
417.000000	2.292000   
417.500000	2.338000   
418.000000	2.388000   
418.500000	2.193000   
419.000000	2.212000   
419.500000	2.106000   
420.000000	2.194000   
420.500000	2.581000   
421.000000	2.349000   
421.500000	2.270000   
422.000000	2.265000   
422.500000	2.229000   
423.000000	2.426000   
423.500000	2.696000   
424.000000	2.352000   
424.500000	2.247000   
425.000000	2.133000   
425.500000	2.231000   
426.000000	2.406000   
426.500000	2.388000   
427.000000	2.368000   
427.500000	2.482000   
428.000000	2.415000   
428.500000	2.780000   
429.000000	2.630000   
429.500000	2.448000   
430.000000	2.635000   
430.500000	2.326000   
431.000000	2.319000   
431.500000	2.423000   
432.000000	2.541000   
432.500000	2.460000   
433.000000	2.272000   
433.500000	2.506000   
434.000000	2.342000   
434.500000	2.523000   
435.000000	2.434000   
435.500000	2.477000   
436.000000	2.678000   
436.500000	2.828000   
437.000000	2.773000   
437.500000	2.575000   
438.000000	2.575000   
438.500000	2.873000   
439.000000	2.678000   
439.500000	2.881000   
440.000000	2.792000   
440.500000	2.650000   
441.000000	3.011000   
441.500000	2.891000   
442.000000	2.859000   
442.500000	2.840000   
443.000000	2.763000   
443.500000	2.775000   
444.000000	2.917000   
444.500000	3.014000   
445.000000	2.959000   
445.500000	2.957000   
446.000000	2.963000   
446.500000	2.813000   
447.000000	2.948000   
447.500000	2.972000   
448.000000	2.881000   
448.500000	2.838000   
449.000000	3.100000   
449.500000	3.027000   
450.000000	3.227000   
450.500000	3.143000   
451.000000	2.882000   
451.500000	2.889000   
452.000000	2.884000   
452.500000	3.139000   
453.000000	2.986000   
453.500000	2.776000   
454.000000	2.799000   
454.500000	2.887000   
455.000000	2.956000   
455.500000	2.985000   
456.000000	3.025000   
456.500000	3.246000   
457.000000	3.205000   
457.500000	2.873000   
458.000000	3.091000   
458.500000	3.192000   
459.000000	3.182000   
459.500000	3.131000   
460.000000	3.227000   
460.500000	3.109000   
461.000000	3.171000   
461.500000	3.255000   
462.000000	3.082000   
462.500000	3.063000   
463.000000	3.281000   
463.500000	3.269000   
464.000000	3.636000   
464.500000	3.365000   
465.000000	3.141000   
465.500000	3.362000   
466.000000	3.160000   
466.500000	3.414000   
467.000000	3.250000   
467.500000	3.199000   
468.000000	3.480000   
468.500000	3.448000   
469.000000	3.513000   
469.500000	3.515000   
470.000000	3.697000   
470.500000	4.033000   
471.000000	4.685000   
471.500000	5.408000   
472.000000	6.549000   
472.500000	8.045000   
473.000000	10.419000  
473.500000	12.303000  
474.000000	15.875000  
474.500000	19.412000  
475.000000	24.059000  
475.500000	29.987000  
476.000000	38.902000  
476.500000	46.477000  
477.000000	57.248000  
477.500000	67.784000  
478.000000	81.506000  
478.500000	96.180000  
479.000000	112.298000 
479.500000	129.859000 
480.000000	150.737000 
480.500000	173.347000 
481.000000	198.504000 
481.500000	219.157000 
482.000000	242.722000 
482.500000	269.625000 
483.000000	292.380000 
483.500000	324.681000 
484.000000	349.083000 
484.500000	376.950000 
485.000000	400.849000 
485.500000	427.311000 
486.000000	444.016000 
486.500000	473.013000 
487.000000	488.271000 
487.500000	509.237000 
488.000000	521.801000 
488.500000	537.526000 
489.000000	548.413000 
489.500000	554.921000 
490.000000	558.193000 
490.500000	561.385000 
491.000000	563.763000 
491.500000	559.461000 
492.000000	553.030999 
492.500000	546.109000 
493.000000	531.907000 
493.500000	517.092000 
494.000000	502.023000 
494.500000	482.461000 
495.000000	463.020000 
495.500000	440.848000 
496.000000	417.949000 
496.500000	389.722000 
497.000000	363.622000 
497.500000	332.877000 
498.000000	310.935000 
498.500000	282.678000 
499.000000	257.216000 
499.500000	228.776000 
500.000000	206.698000 
500.500000	181.929000 
501.000000	160.487000 
501.500000	139.228000 
502.000000	118.789000 
502.500000	102.356000 
503.000000	86.441999  
503.500000	76.236000  
504.000000	63.768000  
504.500000	52.533000  
505.000000	41.713000  
505.500000	35.123000  
506.000000	27.330000  
506.500000	23.853000  
507.000000	17.942000  
507.500000	13.751000  
508.000000	11.089000  
508.500000	9.422000   
509.000000	7.841000   
509.500000	6.164000   
510.000000	5.384000   
510.500000	4.642000   
511.000000	4.236000   
511.500000	4.134000   
512.000000	3.987000   
512.500000	3.753000   
513.000000	3.319000   
513.500000	3.487000   
514.000000	3.506000   
514.500000	3.249000   
515.000000	3.563000   
515.500000	3.596000   
516.000000	3.244000   
516.500000	3.291000   
517.000000	3.078000   
517.500000	3.179000   
518.000000	3.228000   
518.500000	3.046000   
519.000000	3.097000   
519.500000	3.116000   
520.000000	3.059000   
520.500000	2.857000   
521.000000	3.023000   
521.500000	2.965000   
522.000000	3.194000   
522.500000	3.068000   
523.000000	3.104000   
523.500000	3.282000   
524.000000	3.106000   
524.500000	3.104000   
525.000000	3.114000   
525.500000	3.114000   
526.000000	3.137000   
526.500000	3.420000   
527.000000	3.186000   
527.500000	3.371000   
528.000000	3.696000   
528.500000	3.583000   
529.000000	3.825000   
529.500000	3.998000   
530.000000	4.037000   
530.500000	4.015000   
531.000000	4.322000   
531.500000	4.247000   
532.000000	4.353000   
532.500000	4.434000   
533.000000	4.629000   
533.500000	4.752000   
534.000000	4.953000   
534.500000	4.752000   
535.000000	4.774000   
535.500000	5.325000   
536.000000	5.158000   
536.500000	5.043000   
537.000000	4.837000   
537.500000	4.615000   
538.000000	5.051000   
538.500000	5.349000   
539.000000	5.060000   
539.500000	5.243000   
540.000000	4.945000   
540.500000	4.848000   
541.000000	4.746000   
541.500000	4.756000   
542.000000	4.370000   
542.500000	4.328000   
543.000000	4.225000   
543.500000	3.802000   
544.000000	4.058000   
544.500000	4.022000   
545.000000	3.573000   
545.500000	3.174000   
546.000000	3.018000   
546.500000	2.839000   
547.000000	2.895000   
547.500000	2.650000   
548.000000	2.717000   
548.500000	2.298000   

