PE FL                   SPECTRUM    ASCII       PEDS        1.60        
  -1
0124DI~1.SP
19/01/24
10:54:16.00
19/01/24
10:54:16.00


548.500000
1









LS45
510.00
10.00
10.00
SCAN
1
16
100
100
0
600
0
1
0
1
7
ON
435 365 
0 0 0
#HDR
-1
-1
#GR
NM
INT 
0.00002384185791015625
0.0
230.000000
0.500000
638
8
119.227000
0.000000
#DATA
230.000000	0.016000   
230.500000	0.000000   
231.000000	0.010000   
231.500000	0.040000   
232.000000	0.004000   
232.500000	0.000000   
233.000000	0.000000   
233.500000	0.005000   
234.000000	0.017000   
234.500000	0.005000   
235.000000	0.018000   
235.500000	0.004000   
236.000000	0.015000   
236.500000	0.025000   
237.000000	0.059000   
237.500000	0.018000   
238.000000	0.021000   
238.500000	0.047000   
239.000000	0.074000   
239.500000	0.110000   
240.000000	0.150000   
240.500000	0.143000   
241.000000	0.184000   
241.500000	0.293000   
242.000000	0.338000   
242.500000	0.423000   
243.000000	0.482000   
243.500000	0.496000   
244.000000	0.617000   
244.500000	0.624000   
245.000000	0.733000   
245.500000	0.882000   
246.000000	1.028000   
246.500000	1.076000   
247.000000	1.116000   
247.500000	1.259000   
248.000000	1.439000   
248.500000	1.568000   
249.000000	1.700000   
249.500000	1.598000   
250.000000	1.823000   
250.500000	1.893000   
251.000000	1.892000   
251.500000	1.656000   
252.000000	1.653000   
252.500000	1.830000   
253.000000	1.868000   
253.500000	1.844000   
254.000000	1.623000   
254.500000	1.694000   
255.000000	1.561000   
255.500000	1.661000   
256.000000	1.498000   
256.500000	1.290000   
257.000000	1.309000   
257.500000	1.225000   
258.000000	1.107000   
258.500000	1.054000   
259.000000	1.106000   
259.500000	0.969000   
260.000000	0.778000   
260.500000	0.626000   
261.000000	0.476000   
261.500000	0.462000   
262.000000	0.485000   
262.500000	0.393000   
263.000000	0.392000   
263.500000	0.418000   
264.000000	0.354000   
264.500000	0.342000   
265.000000	0.254000   
265.500000	0.278000   
266.000000	0.382000   
266.500000	0.301000   
267.000000	0.365000   
267.500000	0.434000   
268.000000	0.520000   
268.500000	0.585000   
269.000000	0.542000   
269.500000	0.643000   
270.000000	0.711000   
270.500000	0.713000   
271.000000	0.699000   
271.500000	0.794000   
272.000000	0.971000   
272.500000	0.939999   
273.000000	0.981000   
273.500000	0.976000   
274.000000	1.115000   
274.500000	1.156000   
275.000000	1.038000   
275.500000	1.121000   
276.000000	1.086000   
276.500000	1.130000   
277.000000	1.081000   
277.500000	0.973000   
278.000000	0.936000   
278.500000	1.004000   
279.000000	0.889000   
279.500000	1.037000   
280.000000	0.993000   
280.500000	0.899000   
281.000000	0.732000   
281.500000	0.749000   
282.000000	0.609000   
282.500000	0.615000   
283.000000	0.608000   
283.500000	0.533000   
284.000000	0.499000   
284.500000	0.399000   
285.000000	0.346000   
285.500000	0.351000   
286.000000	0.355000   
286.500000	0.291000   
287.000000	0.237000   
287.500000	0.195000   
288.000000	0.153000   
288.500000	0.111000   
289.000000	0.135000   
289.500000	0.082000   
290.000000	0.063000   
290.500000	0.063000   
291.000000	0.074000   
291.500000	0.078000   
292.000000	0.119000   
292.500000	0.109000   
293.000000	0.090000   
293.500000	0.085999   
294.000000	0.087999   
294.500000	0.040000   
295.000000	0.049000   
295.500000	0.040000   
296.000000	0.064000   
296.500000	0.055000   
297.000000	0.046000   
297.500000	0.063000   
298.000000	0.067000   
298.500000	0.074000   
299.000000	0.091000   
299.500000	0.055000   
300.000000	0.067000   
300.500000	0.071999   
301.000000	0.078000   
301.500000	0.069000   
302.000000	0.070999   
302.500000	0.046000   
303.000000	0.079000   
303.500000	0.057000   
304.000000	0.059000   
304.500000	0.036000   
305.000000	0.053000   
305.500000	0.064000   
306.000000	0.056000   
306.500000	0.065000   
307.000000	0.045000   
307.500000	0.020000   
308.000000	0.040000   
308.500000	0.070000   
309.000000	0.097000   
309.500000	0.081000   
310.000000	0.083000   
310.500000	0.080000   
311.000000	0.058000   
311.500000	0.080000   
312.000000	0.085000   
312.500000	0.060000   
313.000000	0.065000   
313.500000	0.085000   
314.000000	0.095000   
314.500000	0.087999   
315.000000	0.055000   
315.500000	0.070999   
316.000000	0.029000   
316.500000	0.081000   
317.000000	0.094000   
317.500000	0.120000   
318.000000	0.089000   
318.500000	0.047000   
319.000000	0.076000   
319.500000	0.100000   
320.000000	0.046000   
320.500000	0.031000   
321.000000	0.050000   
321.500000	0.055000   
322.000000	0.068000   
322.500000	0.107000   
323.000000	0.113000   
323.500000	0.066000   
324.000000	0.070000   
324.500000	0.074000   
325.000000	0.047000   
325.500000	0.059000   
326.000000	0.058000   
326.500000	0.125000   
327.000000	0.053000   
327.500000	0.060000   
328.000000	0.097000   
328.500000	0.090000   
329.000000	0.114000   
329.500000	0.099000   
330.000000	0.103000   
330.500000	0.109000   
331.000000	0.071999   
331.500000	0.079000   
332.000000	0.070000   
332.500000	0.080000   
333.000000	0.081000   
333.500000	0.070999   
334.000000	0.055000   
334.500000	0.061000   
335.000000	0.060000   
335.500000	0.061000   
336.000000	0.071999   
336.500000	0.083000   
337.000000	0.057000   
337.500000	0.071999   
338.000000	0.022000   
338.500000	0.046000   
339.000000	0.055000   
339.500000	0.048000   
340.000000	0.097000   
340.500000	0.071999   
341.000000	0.020000   
341.500000	0.040000   
342.000000	0.068000   
342.500000	0.065000   
343.000000	0.060000   
343.500000	0.100000   
344.000000	0.090000   
344.500000	0.090000   
345.000000	0.099000   
345.500000	0.075000   
346.000000	0.084000   
346.500000	0.081000   
347.000000	0.103000   
347.500000	0.070000   
348.000000	0.078000   
348.500000	0.070999   
349.000000	0.085000   
349.500000	0.060000   
350.000000	0.044000   
350.500000	0.085000   
351.000000	0.089000   
351.500000	0.062000   
352.000000	0.098000   
352.500000	0.084000   
353.000000	0.075000   
353.500000	0.040000   
354.000000	0.060000   
354.500000	0.062000   
355.000000	0.085999   
355.500000	0.082000   
356.000000	0.063000   
356.500000	0.057000   
357.000000	0.087999   
357.500000	0.115000   
358.000000	0.067000   
358.500000	0.131000   
359.000000	0.100000   
359.500000	0.086999   
360.000000	0.033000   
360.500000	0.044000   
361.000000	0.077000   
361.500000	0.056000   
362.000000	0.085000   
362.500000	0.090000   
363.000000	0.067000   
363.500000	0.105000   
364.000000	0.048000   
364.500000	0.056000   
365.000000	0.096000   
365.500000	0.120000   
366.000000	0.078000   
366.500000	0.116000   
367.000000	0.112000   
367.500000	0.096000   
368.000000	0.087999   
368.500000	0.095000   
369.000000	0.107000   
369.500000	0.109000   
370.000000	0.113000   
370.500000	0.099000   
371.000000	0.085999   
371.500000	0.129000   
372.000000	0.122000   
372.500000	0.135000   
373.000000	0.103000   
373.500000	0.080000   
374.000000	0.080000   
374.500000	0.097000   
375.000000	0.103000   
375.500000	0.079000   
376.000000	0.066000   
376.500000	0.082000   
377.000000	0.143000   
377.500000	0.153000   
378.000000	0.096000   
378.500000	0.078000   
379.000000	0.085000   
379.500000	0.142000   
380.000000	0.093000   
380.500000	0.071999   
381.000000	0.089000   
381.500000	0.104000   
382.000000	0.078000   
382.500000	0.116000   
383.000000	0.119000   
383.500000	0.117000   
384.000000	0.109000   
384.500000	0.085000   
385.000000	0.134000   
385.500000	0.061000   
386.000000	0.068000   
386.500000	0.073000   
387.000000	0.064000   
387.500000	0.084000   
388.000000	0.099000   
388.500000	0.044000   
389.000000	0.078000   
389.500000	0.087999   
390.000000	0.096000   
390.500000	0.039000   
391.000000	0.066000   
391.500000	0.076000   
392.000000	0.078000   
392.500000	0.073000   
393.000000	0.107000   
393.500000	0.114000   
394.000000	0.033000   
394.500000	0.091000   
395.000000	0.076000   
395.500000	0.149000   
396.000000	0.119000   
396.500000	0.061000   
397.000000	0.061000   
397.500000	0.131000   
398.000000	0.071999   
398.500000	0.094000   
399.000000	0.104000   
399.500000	0.109000   
400.000000	0.096000   
400.500000	0.089000   
401.000000	0.133000   
401.500000	0.084000   
402.000000	0.060000   
402.500000	0.080000   
403.000000	0.094000   
403.500000	0.103000   
404.000000	0.120000   
404.500000	0.125000   
405.000000	0.078000   
405.500000	0.089000   
406.000000	0.135000   
406.500000	0.115000   
407.000000	0.114000   
407.500000	0.117000   
408.000000	0.129000   
408.500000	0.139000   
409.000000	0.144000   
409.500000	0.105000   
410.000000	0.096000   
410.500000	0.078000   
411.000000	0.090000   
411.500000	0.100000   
412.000000	0.077000   
412.500000	0.117000   
413.000000	0.110000   
413.500000	0.097000   
414.000000	0.123000   
414.500000	0.143000   
415.000000	0.091000   
415.500000	0.114000   
416.000000	0.094000   
416.500000	0.103000   
417.000000	0.121000   
417.500000	0.140000   
418.000000	0.123000   
418.500000	0.145000   
419.000000	0.192000   
419.500000	0.113000   
420.000000	0.133000   
420.500000	0.153000   
421.000000	0.148000   
421.500000	0.129000   
422.000000	0.128000   
422.500000	0.147000   
423.000000	0.073000   
423.500000	0.095000   
424.000000	0.103000   
424.500000	0.116000   
425.000000	0.117000   
425.500000	0.111000   
426.000000	0.101000   
426.500000	0.109000   
427.000000	0.131000   
427.500000	0.126000   
428.000000	0.140000   
428.500000	0.124000   
429.000000	0.150000   
429.500000	0.074000   
430.000000	0.093000   
430.500000	0.157000   
431.000000	0.129000   
431.500000	0.142000   
432.000000	0.163000   
432.500000	0.172000   
433.000000	0.175000   
433.500000	0.131000   
434.000000	0.166000   
434.500000	0.165000   
435.000000	0.148000   
435.500000	0.153000   
436.000000	0.202000   
436.500000	0.138000   
437.000000	0.173000   
437.500000	0.137000   
438.000000	0.115000   
438.500000	0.079000   
439.000000	0.184000   
439.500000	0.127000   
440.000000	0.131000   
440.500000	0.139000   
441.000000	0.165000   
441.500000	0.155000   
442.000000	0.176000   
442.500000	0.265000   
443.000000	0.222000   
443.500000	0.165000   
444.000000	0.201000   
444.500000	0.195000   
445.000000	0.214000   
445.500000	0.181000   
446.000000	0.230000   
446.500000	0.198000   
447.000000	0.145000   
447.500000	0.247000   
448.000000	0.212000   
448.500000	0.237000   
449.000000	0.211000   
449.500000	0.190000   
450.000000	0.172000   
450.500000	0.189000   
451.000000	0.264000   
451.500000	0.246000   
452.000000	0.204000   
452.500000	0.247000   
453.000000	0.256000   
453.500000	0.241000   
454.000000	0.223000   
454.500000	0.242000   
455.000000	0.285000   
455.500000	0.233000   
456.000000	0.261000   
456.500000	0.274000   
457.000000	0.136000   
457.500000	0.229000   
458.000000	0.307000   
458.500000	0.230000   
459.000000	0.219000   
459.500000	0.306000   
460.000000	0.266000   
460.500000	0.233000   
461.000000	0.295000   
461.500000	0.339000   
462.000000	0.288000   
462.500000	0.224000   
463.000000	0.275000   
463.500000	0.233000   
464.000000	0.308000   
464.500000	0.278000   
465.000000	0.301000   
465.500000	0.307000   
466.000000	0.318000   
466.500000	0.364000   
467.000000	0.238000   
467.500000	0.281000   
468.000000	0.258000   
468.500000	0.218000   
469.000000	0.335000   
469.500000	0.245000   
470.000000	0.271000   
470.500000	0.333000   
471.000000	0.443000   
471.500000	0.419000   
472.000000	0.335000   
472.500000	0.357000   
473.000000	0.371000   
473.500000	0.305000   
474.000000	0.376000   
474.500000	0.327000   
475.000000	0.336000   
475.500000	0.416000   
476.000000	0.354000   
476.500000	0.484000   
477.000000	0.473000   
477.500000	0.413000   
478.000000	0.460000   
478.500000	0.335000   
479.000000	0.368000   
479.500000	0.496000   
480.000000	0.537000   
480.500000	0.475000   
481.000000	0.635000   
481.500000	0.544000   
482.000000	0.531000   
482.500000	0.512000   
483.000000	0.623000   
483.500000	0.590000   
484.000000	0.624000   
484.500000	0.652000   
485.000000	0.578000   
485.500000	0.635000   
486.000000	0.722000   
486.500000	0.715000   
487.000000	0.932000   
487.500000	1.042000   
488.000000	1.245000   
488.500000	1.849000   
489.000000	2.136000   
489.500000	2.544000   
490.000000	3.265000   
490.500000	4.038000   
491.000000	5.267000   
491.500000	6.929000   
492.000000	8.347000   
492.500000	10.723000  
493.000000	13.117000  
493.500000	16.053000  
494.000000	18.537000  
494.500000	22.495000  
495.000000	25.479000  
495.500000	30.455000  
496.000000	34.557000  
496.500000	39.639000  
497.000000	45.263000  
497.500000	49.717000  
498.000000	56.008000  
498.500000	61.895000  
499.000000	65.665000  
499.500000	72.277000  
500.000000	77.242000  
500.500000	82.411000  
501.000000	88.333000  
501.500000	93.274000  
502.000000	100.204000 
502.500000	103.065000 
503.000000	107.529000 
503.500000	109.448000 
504.000000	114.091000 
504.500000	115.608000 
505.000000	115.779000 
505.500000	119.227000 
506.000000	118.677000 
506.500000	116.246000 
507.000000	115.309000 
507.500000	112.943000 
508.000000	111.078000 
508.500000	109.986000 
509.000000	105.625000 
509.500000	100.339000 
510.000000	94.208000  
510.500000	90.084000  
511.000000	84.628000  
511.500000	79.272000  
512.000000	74.152000  
512.500000	68.641000  
513.000000	61.894000  
513.500000	57.627000  
514.000000	50.510000  
514.500000	47.015000  
515.000000	40.902000  
515.500000	36.588000  
516.000000	31.949000  
516.500000	27.325000  
517.000000	22.978000  
517.500000	18.948000  
518.000000	16.450000  
518.500000	14.804000  
519.000000	12.115000  
519.500000	10.115000  
520.000000	8.068000   
520.500000	6.775000   
521.000000	5.721000   
521.500000	4.424000   
522.000000	3.373000   
522.500000	2.754000   
523.000000	2.243000   
523.500000	1.738000   
524.000000	1.542000   
524.500000	1.332000   
525.000000	1.136000   
525.500000	0.863000   
526.000000	1.005000   
526.500000	0.800000   
527.000000	0.738000   
527.500000	0.688999   
528.000000	0.687000   
528.500000	0.768000   
529.000000	0.837000   
529.500000	0.644000   
530.000000	0.518000   
530.500000	0.677000   
531.000000	0.586000   
531.500000	0.552000   
532.000000	0.508000   
532.500000	0.548000   
533.000000	0.573000   
533.500000	0.472000   
534.000000	0.444000   
534.500000	0.573000   
535.000000	0.501000   
535.500000	0.544000   
536.000000	0.638000   
536.500000	0.584000   
537.000000	0.587000   
537.500000	0.565999   
538.000000	0.557000   
538.500000	0.517000   
539.000000	0.680000   
539.500000	0.676000   
540.000000	0.645000   
540.500000	0.734000   
541.000000	0.687999   
541.500000	0.732000   
542.000000	0.788000   
542.500000	0.988000   
543.000000	1.065000   
543.500000	1.142000   
544.000000	1.091000   
544.500000	1.316000   
545.000000	1.450000   
545.500000	1.476000   
546.000000	1.714000   
546.500000	1.899000   
547.000000	1.742000   
547.500000	1.840000   
548.000000	2.027000   
548.500000	2.120000   

