PE FL                   SPECTRUM    ASCII       PEDS        1.60        
  -1
0170F1~1.SP
19/01/24
10:15:03.00
19/01/24
10:15:03.00


548.500000
1









LS45
250.00
10.00
10.00
SCAN
1
16
100
100
0
600
0
1
0
1
7
ON
435 365 
0 0 0
#HDR
-1
-1
#GR
NM
INT 
0.00002384185791015625
0.0
230.000000
0.500000
638
8
999.999000
1.520000
#DATA
230.000000	1.520000   
230.500000	1.959000   
231.000000	1.992000   
231.500000	1.779000   
232.000000	2.477000   
232.500000	2.913000   
233.000000	3.739000   
233.500000	4.946000   
234.000000	7.069000   
234.500000	8.666000   
235.000000	11.307000  
235.500000	13.799000  
236.000000	16.540000  
236.500000	20.041000  
237.000000	22.724000  
237.500000	27.635000  
238.000000	33.481000  
238.500000	37.156000  
239.000000	41.676000  
239.500000	48.230000  
240.000000	51.930000  
240.500000	58.513000  
241.000000	66.343000  
241.500000	72.126000  
242.000000	78.898000  
242.500000	87.227999  
243.000000	95.110000  
243.500000	104.896000 
244.000000	108.519000 
244.500000	116.524000 
245.000000	122.828000 
245.500000	127.847000 
246.000000	133.561000 
246.500000	136.990000 
247.000000	142.688000 
247.500000	142.706000 
248.000000	143.054000 
248.500000	144.853000 
249.000000	145.506000 
249.500000	145.152000 
250.000000	143.038000 
250.500000	140.625000 
251.000000	137.098000 
251.500000	135.667000 
252.000000	131.327000 
252.500000	124.465000 
253.000000	123.557000 
253.500000	117.005000 
254.000000	110.810000 
254.500000	105.213000 
255.000000	95.613000  
255.500000	94.584999  
256.000000	87.614999  
256.500000	84.280000  
257.000000	75.596000  
257.500000	70.036000  
258.000000	65.453000  
258.500000	61.760000  
259.000000	59.180000  
259.500000	58.104000  
260.000000	58.303000  
260.500000	55.255000  
261.000000	56.897000  
261.500000	53.616000  
262.000000	54.300000  
262.500000	56.394000  
263.000000	56.597000  
263.500000	59.113000  
264.000000	62.727000  
264.500000	66.377000  
265.000000	69.890000  
265.500000	71.784000  
266.000000	73.369000  
266.500000	78.903000  
267.000000	84.691000  
267.500000	85.950000  
268.000000	90.297000  
268.500000	91.209999  
269.000000	93.173000  
269.500000	93.577000  
270.000000	93.593999  
270.500000	93.696000  
271.000000	93.675000  
271.500000	95.063000  
272.000000	92.325000  
272.500000	92.801000  
273.000000	91.599999  
273.500000	89.679000  
274.000000	85.648000  
274.500000	84.041000  
275.000000	81.066000  
275.500000	78.947000  
276.000000	76.711000  
276.500000	71.256000  
277.000000	68.215000  
277.500000	63.373000  
278.000000	57.987000  
278.500000	54.668000  
279.000000	51.943000  
279.500000	47.531000  
280.000000	42.610000  
280.500000	40.538000  
281.000000	35.195000  
281.500000	31.556000  
282.000000	29.054000  
282.500000	26.894000  
283.000000	25.114000  
283.500000	22.034000  
284.000000	18.594000  
284.500000	16.709000  
285.000000	15.276000  
285.500000	13.774000  
286.000000	12.786000  
286.500000	11.586000  
287.000000	10.225000  
287.500000	8.864000   
288.000000	7.451000   
288.500000	6.855000   
289.000000	6.371000   
289.500000	5.333000   
290.000000	5.165000   
290.500000	4.683000   
291.000000	4.478000   
291.500000	3.963000   
292.000000	3.813000   
292.500000	3.849000   
293.000000	3.692000   
293.500000	3.749000   
294.000000	3.326000   
294.500000	3.291000   
295.000000	3.240000   
295.500000	2.983000   
296.000000	3.138000   
296.500000	2.904000   
297.000000	2.992000   
297.500000	3.014000   
298.000000	2.939000   
298.500000	3.451000   
299.000000	3.396000   
299.500000	3.258000   
300.000000	3.227000   
300.500000	3.151000   
301.000000	3.165000   
301.500000	3.260000   
302.000000	3.158000   
302.500000	3.231000   
303.000000	3.475000   
303.500000	3.266000   
304.000000	3.361000   
304.500000	3.087000   
305.000000	3.331000   
305.500000	3.008000   
306.000000	2.789000   
306.500000	2.907000   
307.000000	3.226000   
307.500000	3.344000   
308.000000	3.195000   
308.500000	3.492000   
309.000000	3.014000   
309.500000	2.617000   
310.000000	3.069000   
310.500000	3.361000   
311.000000	3.048000   
311.500000	2.875000   
312.000000	2.888000   
312.500000	3.375000   
313.000000	3.325000   
313.500000	3.142000   
314.000000	3.137000   
314.500000	3.057000   
315.000000	2.952000   
315.500000	3.302000   
316.000000	3.056000   
316.500000	3.772000   
317.000000	3.191000   
317.500000	2.677000   
318.000000	2.939000   
318.500000	2.791000   
319.000000	3.268000   
319.500000	3.261000   
320.000000	2.868000   
320.500000	2.936000   
321.000000	3.019000   
321.500000	3.056000   
322.000000	2.922000   
322.500000	3.189000   
323.000000	3.182000   
323.500000	2.843000   
324.000000	2.852000   
324.500000	2.916000   
325.000000	2.582000   
325.500000	2.805000   
326.000000	3.283000   
326.500000	3.152000   
327.000000	2.820000   
327.500000	2.795000   
328.000000	3.048000   
328.500000	3.162000   
329.000000	3.036000   
329.500000	3.085000   
330.000000	3.028000   
330.500000	2.893000   
331.000000	2.814000   
331.500000	2.780000   
332.000000	3.552000   
332.500000	3.132000   
333.000000	2.861000   
333.500000	3.066000   
334.000000	2.912000   
334.500000	2.914000   
335.000000	2.709000   
335.500000	2.817000   
336.000000	3.158000   
336.500000	2.994000   
337.000000	2.778000   
337.500000	2.758000   
338.000000	2.747000   
338.500000	2.614000   
339.000000	2.960000   
339.500000	2.841000   
340.000000	2.669000   
340.500000	2.878000   
341.000000	3.065000   
341.500000	2.833000   
342.000000	2.728000   
342.500000	2.746000   
343.000000	2.737000   
343.500000	2.932000   
344.000000	2.867000   
344.500000	2.399000   
345.000000	2.908000   
345.500000	2.704000   
346.000000	2.629000   
346.500000	2.625000   
347.000000	2.445000   
347.500000	2.781000   
348.000000	2.656000   
348.500000	2.673000   
349.000000	2.778000   
349.500000	2.913000   
350.000000	2.822000   
350.500000	2.810000   
351.000000	2.548000   
351.500000	3.213000   
352.000000	2.859000   
352.500000	2.130000   
353.000000	2.657000   
353.500000	2.666000   
354.000000	2.742000   
354.500000	3.322000   
355.000000	2.688000   
355.500000	2.480000   
356.000000	2.611000   
356.500000	2.564000   
357.000000	2.533000   
357.500000	2.398000   
358.000000	2.630000   
358.500000	2.440000   
359.000000	2.192000   
359.500000	2.257000   
360.000000	2.474000   
360.500000	2.306000   
361.000000	2.434000   
361.500000	2.252000   
362.000000	2.231000   
362.500000	2.467000   
363.000000	2.395000   
363.500000	2.565000   
364.000000	2.180000   
364.500000	2.607000   
365.000000	2.476000   
365.500000	2.554000   
366.000000	2.434000   
366.500000	2.696000   
367.000000	2.496000   
367.500000	2.469000   
368.000000	2.675000   
368.500000	2.229000   
369.000000	2.489000   
369.500000	2.372000   
370.000000	2.091000   
370.500000	2.166000   
371.000000	2.372000   
371.500000	2.443000   
372.000000	2.625000   
372.500000	2.523000   
373.000000	2.452000   
373.500000	2.508000   
374.000000	2.872000   
374.500000	2.310000   
375.000000	2.353000   
375.500000	2.569000   
376.000000	2.751000   
376.500000	2.497000   
377.000000	2.651000   
377.500000	2.577000   
378.000000	2.169000   
378.500000	2.050000   
379.000000	2.353000   
379.500000	2.471000   
380.000000	2.353000   
380.500000	2.206000   
381.000000	2.600000   
381.500000	2.473000   
382.000000	2.187000   
382.500000	2.445000   
383.000000	2.200000   
383.500000	2.392000   
384.000000	2.600000   
384.500000	2.374000   
385.000000	2.160000   
385.500000	2.235000   
386.000000	2.289000   
386.500000	2.373000   
387.000000	2.560000   
387.500000	2.931000   
388.000000	2.404000   
388.500000	2.315000   
389.000000	2.335000   
389.500000	2.794000   
390.000000	2.515000   
390.500000	2.367000   
391.000000	2.150000   
391.500000	2.275000   
392.000000	2.367000   
392.500000	2.289000   
393.000000	2.874000   
393.500000	2.664000   
394.000000	2.658000   
394.500000	2.727000   
395.000000	2.651000   
395.500000	2.911000   
396.000000	2.510000   
396.500000	2.514000   
397.000000	2.150000   
397.500000	2.821000   
398.000000	2.714000   
398.500000	2.442000   
399.000000	2.528000   
399.500000	2.761000   
400.000000	2.564000   
400.500000	2.314000   
401.000000	2.482000   
401.500000	2.540000   
402.000000	2.537000   
402.500000	2.605000   
403.000000	2.344000   
403.500000	2.293000   
404.000000	2.370000   
404.500000	2.535000   
405.000000	2.928000   
405.500000	2.594000   
406.000000	2.726000   
406.500000	2.645000   
407.000000	2.936000   
407.500000	2.698000   
408.000000	2.475000   
408.500000	2.876000   
409.000000	2.631000   
409.500000	2.823000   
410.000000	3.045000   
410.500000	3.056000   
411.000000	2.657000   
411.500000	2.640000   
412.000000	2.718000   
412.500000	2.516000   
413.000000	2.894000   
413.500000	2.777000   
414.000000	2.795000   
414.500000	2.980000   
415.000000	2.683000   
415.500000	2.675000   
416.000000	2.911000   
416.500000	3.064000   
417.000000	3.039000   
417.500000	2.857000   
418.000000	2.734000   
418.500000	3.088000   
419.000000	2.481000   
419.500000	2.588000   
420.000000	2.971000   
420.500000	3.003000   
421.000000	2.873000   
421.500000	2.513000   
422.000000	2.788000   
422.500000	2.425000   
423.000000	2.687000   
423.500000	2.813000   
424.000000	2.826000   
424.500000	3.022000   
425.000000	3.263000   
425.500000	3.159000   
426.000000	3.039000   
426.500000	3.035000   
427.000000	3.034000   
427.500000	2.837000   
428.000000	2.787000   
428.500000	3.031000   
429.000000	2.697000   
429.500000	2.894000   
430.000000	2.931000   
430.500000	3.051000   
431.000000	2.651000   
431.500000	2.398000   
432.000000	3.093000   
432.500000	2.932000   
433.000000	3.060000   
433.500000	3.056000   
434.000000	2.865000   
434.500000	3.252000   
435.000000	3.237000   
435.500000	2.909000   
436.000000	2.815000   
436.500000	3.201000   
437.000000	2.979000   
437.500000	2.691000   
438.000000	2.906000   
438.500000	2.873000   
439.000000	3.382000   
439.500000	3.130000   
440.000000	3.195000   
440.500000	3.349000   
441.000000	3.414000   
441.500000	3.322000   
442.000000	3.028000   
442.500000	3.298000   
443.000000	3.672000   
443.500000	3.408000   
444.000000	3.388000   
444.500000	3.376000   
445.000000	3.216000   
445.500000	3.500000   
446.000000	3.565000   
446.500000	3.533000   
447.000000	4.004000   
447.500000	3.198000   
448.000000	3.320000   
448.500000	3.706000   
449.000000	3.863000   
449.500000	3.991000   
450.000000	3.944000   
450.500000	4.089000   
451.000000	3.669000   
451.500000	3.362000   
452.000000	3.829000   
452.500000	4.453000   
453.000000	4.341000   
453.500000	4.705000   
454.000000	5.257000   
454.500000	4.984000   
455.000000	4.537000   
455.500000	5.573000   
456.000000	5.334000   
456.500000	4.973000   
457.000000	4.830000   
457.500000	5.592000   
458.000000	5.283000   
458.500000	5.058000   
459.000000	5.033000   
459.500000	5.155000   
460.000000	5.194000   
460.500000	5.519000   
461.000000	5.470000   
461.500000	4.977000   
462.000000	4.866000   
462.500000	5.273000   
463.000000	5.752000   
463.500000	5.450000   
464.000000	5.837000   
464.500000	5.856000   
465.000000	5.808000   
465.500000	5.250000   
466.000000	5.591000   
466.500000	6.210000   
467.000000	6.038000   
467.500000	6.315000   
468.000000	5.676000   
468.500000	6.017000   
469.000000	6.676000   
469.500000	6.305000   
470.000000	7.081000   
470.500000	7.254000   
471.000000	7.686000   
471.500000	8.128000   
472.000000	9.965000   
472.500000	10.869000  
473.000000	12.316000  
473.500000	13.192000  
474.000000	15.650000  
474.500000	18.721000  
475.000000	23.216000  
475.500000	26.643000  
476.000000	31.363000  
476.500000	36.267000  
477.000000	40.823000  
477.500000	49.051000  
478.000000	55.630000  
478.500000	62.209000  
479.000000	70.589000  
479.500000	80.512000  
480.000000	91.592000  
480.500000	102.834000 
481.000000	119.878000 
481.500000	134.331000 
482.000000	152.613000 
482.500000	174.658000 
483.000000	191.711000 
483.500000	228.322000 
484.000000	256.889000 
484.500000	293.820000 
485.000000	319.043000 
485.500000	369.616000 
486.000000	406.336000 
486.500000	451.025000 
487.000000	490.822000 
487.500000	530.830000 
488.000000	571.399000 
488.500000	619.375000 
489.000000	656.269000 
489.500000	698.113000 
490.000000	740.117000 
490.500000	789.094000 
491.000000	827.449000 
491.500000	868.600000 
492.000000	904.437000 
492.500000	949.390000 
493.000000	974.500000 
493.500000	999.999000 
494.000000	999.999000 
494.500000	999.999000 
495.000000	999.999000 
495.500000	999.999000 
496.000000	999.999000 
496.500000	999.999000 
497.000000	999.999000 
497.500000	999.999000 
498.000000	999.999000 
498.500000	999.999000 
499.000000	999.999000 
499.500000	993.270000 
500.000000	986.379000 
500.500000	971.438000 
501.000000	947.052000 
501.500000	914.276000 
502.000000	894.525000 
502.500000	867.423000 
503.000000	839.271000 
503.500000	820.976000 
504.000000	778.324000 
504.500000	762.601000 
505.000000	724.011999 
505.500000	685.992000 
506.000000	652.184000 
506.500000	626.460000 
507.000000	597.261000 
507.500000	572.817000 
508.000000	550.569000 
508.500000	523.119000 
509.000000	486.230000 
509.500000	465.754000 
510.000000	434.152000 
510.500000	411.668000 
511.000000	393.058000 
511.500000	369.196000 
512.000000	345.257000 
512.500000	319.345000 
513.000000	294.820000 
513.500000	278.625000 
514.000000	257.722000 
514.500000	234.819000 
515.000000	205.216000 
515.500000	193.294000 
516.000000	178.750000 
516.500000	168.593000 
517.000000	151.352000 
517.500000	137.826000 
518.000000	128.075000 
518.500000	118.388000 
519.000000	114.865000 
519.500000	105.775000 
520.000000	94.040000  
520.500000	87.361000  
521.000000	81.007000  
521.500000	75.311000  
522.000000	69.025000  
522.500000	67.418000  
523.000000	64.505000  
523.500000	61.629000  
524.000000	58.809000  
524.500000	57.832000  
525.000000	57.126000  
525.500000	57.695000  
526.000000	58.947000  
526.500000	59.729000  
527.000000	63.521000  
527.500000	67.036000  
528.000000	69.911000  
528.500000	73.811000  
529.000000	78.724000  
529.500000	82.974000  
530.000000	89.267000  
530.500000	96.733999  
531.000000	104.059000 
531.500000	109.990000 
532.000000	121.308000 
532.500000	128.384000 
533.000000	138.760000 
533.500000	145.190000 
534.000000	152.642000 
534.500000	162.423000 
535.000000	170.130000 
535.500000	180.021000 
536.000000	187.047000 
536.500000	197.021000 
537.000000	201.517000 
537.500000	212.749000 
538.000000	214.879000 
538.500000	218.880000 
539.000000	225.579000 
539.500000	230.708000 
540.000000	234.166000 
540.500000	235.803000 
541.000000	236.635000 
541.500000	233.603000 
542.000000	242.665000 
542.500000	240.448000 
543.000000	234.568000 
543.500000	230.985000 
544.000000	226.619000 
544.500000	219.966000 
545.000000	218.672000 
545.500000	212.049000 
546.000000	205.688000 
546.500000	199.140000 
547.000000	191.449000 
547.500000	185.657000 
548.000000	180.228000 
548.500000	173.219000 

