PE FL                   SPECTRUM    ASCII       PEDS        1.60        
  -1
0180FD~1.SP
19/01/24
10:17:20.00
19/01/24
10:17:20.00


548.500000
1









LS45
265.00
10.00
10.00
SCAN
1
16
100
100
0
600
0
1
0
1
7
ON
435 365 
0 0 0
#HDR
-1
-1
#GR
NM
INT 
0.00002384185791015625
0.0
230.000000
0.500000
638
8
807.554000
0.570000
#DATA
230.000000	0.570000   
230.500000	0.641000   
231.000000	0.672000   
231.500000	0.668000   
232.000000	0.680000   
232.500000	0.812000   
233.000000	1.005000   
233.500000	0.791000   
234.000000	0.609000   
234.500000	0.775000   
235.000000	0.690999   
235.500000	0.720000   
236.000000	0.832000   
236.500000	0.805000   
237.000000	0.623000   
237.500000	0.652000   
238.000000	1.016000   
238.500000	0.815999   
239.000000	0.792000   
239.500000	1.019000   
240.000000	1.088000   
240.500000	1.322000   
241.000000	0.983000   
241.500000	1.128000   
242.000000	1.243000   
242.500000	1.367000   
243.000000	1.524000   
243.500000	1.612000   
244.000000	1.769000   
244.500000	2.084000   
245.000000	2.609000   
245.500000	2.878000   
246.000000	3.675000   
246.500000	4.571000   
247.000000	5.644000   
247.500000	7.892000   
248.000000	10.434000  
248.500000	13.598000  
249.000000	16.880000  
249.500000	21.880000  
250.000000	25.270000  
250.500000	31.801000  
251.000000	36.868000  
251.500000	43.460000  
252.000000	50.059000  
252.500000	58.451000  
253.000000	67.061000  
253.500000	74.041000  
254.000000	86.432000  
254.500000	91.861000  
255.000000	103.705000 
255.500000	118.036000 
256.000000	129.820000 
256.500000	144.037000 
257.000000	157.317000 
257.500000	167.189000 
258.000000	181.483000 
258.500000	193.202000 
259.000000	204.119000 
259.500000	212.205000 
260.000000	220.607000 
260.500000	228.977000 
261.000000	235.704000 
261.500000	243.722000 
262.000000	246.927000 
262.500000	250.992000 
263.000000	252.634000 
263.500000	257.673000 
264.000000	258.879000 
264.500000	254.788000 
265.000000	255.424000 
265.500000	248.028000 
266.000000	241.939000 
266.500000	237.955000 
267.000000	234.168000 
267.500000	223.348000 
268.000000	211.506000 
268.500000	203.260000 
269.000000	189.511000 
269.500000	180.911000 
270.000000	164.999000 
270.500000	156.814000 
271.000000	147.824000 
271.500000	135.170000 
272.000000	125.359000 
272.500000	113.415000 
273.000000	106.386000 
273.500000	95.194999  
274.000000	88.592000  
274.500000	79.962000  
275.000000	75.712999  
275.500000	68.965999  
276.000000	61.589000  
276.500000	58.121000  
277.000000	56.032000  
277.500000	54.312000  
278.000000	53.938000  
278.500000	52.073000  
279.000000	53.978000  
279.500000	55.701000  
280.000000	56.716000  
280.500000	59.020000  
281.000000	62.403000  
281.500000	63.529000  
282.000000	69.639000  
282.500000	75.343999  
283.000000	79.727999  
283.500000	82.528000  
284.000000	85.174000  
284.500000	87.822000  
285.000000	91.568000  
285.500000	94.555000  
286.000000	96.066999  
286.500000	100.119000 
287.000000	101.077000 
287.500000	99.018000  
288.000000	102.344000 
288.500000	102.696000 
289.000000	104.819000 
289.500000	104.763000 
290.000000	104.140000 
290.500000	104.168000 
291.000000	102.665000 
291.500000	98.316000  
292.000000	97.919000  
292.500000	97.736999  
293.000000	94.271000  
293.500000	89.845000  
294.000000	89.247000  
294.500000	86.031000  
295.000000	84.839000  
295.500000	78.753000  
296.000000	72.263000  
296.500000	70.767000  
297.000000	65.703999  
297.500000	61.552000  
298.000000	59.112000  
298.500000	55.437000  
299.000000	51.421000  
299.500000	46.148000  
300.000000	44.500000  
300.500000	39.382000  
301.000000	35.958000  
301.500000	32.934000  
302.000000	30.687000  
302.500000	28.056000  
303.000000	23.677000  
303.500000	22.983000  
304.000000	20.662000  
304.500000	18.050000  
305.000000	14.270000  
305.500000	13.762000  
306.000000	11.535000  
306.500000	11.117000  
307.000000	10.208000  
307.500000	8.690000   
308.000000	7.826000   
308.500000	7.700000   
309.000000	7.144000   
309.500000	6.177000   
310.000000	5.866000   
310.500000	5.462000   
311.000000	5.304000   
311.500000	5.149000   
312.000000	4.513000   
312.500000	4.538000   
313.000000	4.917000   
313.500000	5.104000   
314.000000	4.791000   
314.500000	4.899000   
315.000000	4.418000   
315.500000	4.880000   
316.000000	4.495000   
316.500000	4.502000   
317.000000	4.352000   
317.500000	4.832000   
318.000000	4.936000   
318.500000	4.621000   
319.000000	4.653000   
319.500000	4.510000   
320.000000	4.410000   
320.500000	5.137000   
321.000000	4.567000   
321.500000	4.049000   
322.000000	4.636000   
322.500000	4.529000   
323.000000	4.490000   
323.500000	4.286000   
324.000000	3.946000   
324.500000	4.883000   
325.000000	4.364000   
325.500000	4.232000   
326.000000	4.664000   
326.500000	4.773000   
327.000000	4.662000   
327.500000	4.858000   
328.000000	4.624000   
328.500000	3.932000   
329.000000	4.306000   
329.500000	4.447000   
330.000000	4.108000   
330.500000	4.171000   
331.000000	4.278000   
331.500000	4.337000   
332.000000	4.140000   
332.500000	4.357000   
333.000000	3.972000   
333.500000	4.254000   
334.000000	3.772000   
334.500000	3.805000   
335.000000	4.050000   
335.500000	4.170000   
336.000000	4.079000   
336.500000	3.981000   
337.000000	4.212000   
337.500000	4.181000   
338.000000	3.734000   
338.500000	3.686000   
339.000000	3.827000   
339.500000	3.702000   
340.000000	3.542000   
340.500000	3.508000   
341.000000	3.436000   
341.500000	3.930000   
342.000000	4.002000   
342.500000	3.897000   
343.000000	3.794000   
343.500000	3.715000   
344.000000	3.580000   
344.500000	3.587000   
345.000000	3.457000   
345.500000	3.663000   
346.000000	3.848000   
346.500000	3.631000   
347.000000	3.340000   
347.500000	3.153000   
348.000000	3.079000   
348.500000	3.485000   
349.000000	3.226000   
349.500000	3.175000   
350.000000	3.169000   
350.500000	3.320000   
351.000000	3.128000   
351.500000	2.946000   
352.000000	3.160000   
352.500000	3.106000   
353.000000	2.936000   
353.500000	3.103000   
354.000000	2.763000   
354.500000	2.576000   
355.000000	3.168000   
355.500000	3.146000   
356.000000	2.807000   
356.500000	2.852000   
357.000000	3.055000   
357.500000	2.842000   
358.000000	2.902000   
358.500000	3.043000   
359.000000	2.674000   
359.500000	2.734000   
360.000000	2.669000   
360.500000	2.641000   
361.000000	2.600000   
361.500000	2.637000   
362.000000	2.850000   
362.500000	2.499000   
363.000000	2.829000   
363.500000	2.523000   
364.000000	2.705000   
364.500000	2.675000   
365.000000	2.329000   
365.500000	2.402000   
366.000000	2.868000   
366.500000	2.545000   
367.000000	2.508000   
367.500000	2.425000   
368.000000	2.199000   
368.500000	2.696000   
369.000000	2.345000   
369.500000	2.292000   
370.000000	2.516000   
370.500000	2.350000   
371.000000	2.587000   
371.500000	2.298000   
372.000000	1.956000   
372.500000	2.330000   
373.000000	2.522000   
373.500000	2.829000   
374.000000	2.009000   
374.500000	2.430000   
375.000000	2.148000   
375.500000	2.358000   
376.000000	2.169000   
376.500000	2.163000   
377.000000	2.254000   
377.500000	2.503000   
378.000000	2.786000   
378.500000	2.337000   
379.000000	2.138000   
379.500000	2.303000   
380.000000	2.010000   
380.500000	2.135000   
381.000000	2.402000   
381.500000	2.227000   
382.000000	2.294000   
382.500000	2.495000   
383.000000	2.209000   
383.500000	2.116000   
384.000000	2.010000   
384.500000	2.148000   
385.000000	2.174000   
385.500000	2.096000   
386.000000	2.042000   
386.500000	2.431000   
387.000000	2.298000   
387.500000	2.088000   
388.000000	2.128000   
388.500000	2.203000   
389.000000	2.108000   
389.500000	1.798000   
390.000000	1.943000   
390.500000	2.083000   
391.000000	2.159000   
391.500000	2.357000   
392.000000	2.085000   
392.500000	2.156000   
393.000000	1.888000   
393.500000	2.151000   
394.000000	2.084000   
394.500000	1.649000   
395.000000	1.535000   
395.500000	1.992000   
396.000000	2.080000   
396.500000	2.048000   
397.000000	1.985000   
397.500000	2.206000   
398.000000	2.021000   
398.500000	1.871000   
399.000000	2.124000   
399.500000	2.103000   
400.000000	1.998000   
400.500000	1.796000   
401.000000	1.989000   
401.500000	2.240000   
402.000000	2.114000   
402.500000	2.311000   
403.000000	1.856000   
403.500000	2.283000   
404.000000	2.288000   
404.500000	2.350000   
405.000000	2.088000   
405.500000	1.985000   
406.000000	2.192000   
406.500000	1.899000   
407.000000	1.867000   
407.500000	1.870000   
408.000000	2.229000   
408.500000	2.112000   
409.000000	2.142000   
409.500000	2.125000   
410.000000	2.205000   
410.500000	2.050000   
411.000000	2.272000   
411.500000	2.061000   
412.000000	1.850000   
412.500000	1.890000   
413.000000	1.870000   
413.500000	2.120000   
414.000000	1.766000   
414.500000	1.751000   
415.000000	2.045000   
415.500000	2.119000   
416.000000	2.013000   
416.500000	1.806000   
417.000000	2.059000   
417.500000	1.920000   
418.000000	2.075000   
418.500000	1.846000   
419.000000	2.000000   
419.500000	2.162000   
420.000000	1.980000   
420.500000	2.064000   
421.000000	2.103000   
421.500000	2.148000   
422.000000	2.500000   
422.500000	2.230000   
423.000000	1.720000   
423.500000	1.970000   
424.000000	2.047000   
424.500000	1.861000   
425.000000	1.804000   
425.500000	2.009000   
426.000000	2.117000   
426.500000	2.211000   
427.000000	2.434000   
427.500000	1.906000   
428.000000	2.133000   
428.500000	1.983000   
429.000000	2.245000   
429.500000	1.990000   
430.000000	2.070000   
430.500000	2.028000   
431.000000	1.975000   
431.500000	2.049000   
432.000000	2.276000   
432.500000	2.072000   
433.000000	2.307000   
433.500000	2.155000   
434.000000	1.781000   
434.500000	1.969000   
435.000000	2.073000   
435.500000	1.956000   
436.000000	2.079000   
436.500000	2.071000   
437.000000	2.184000   
437.500000	2.218000   
438.000000	2.128000   
438.500000	1.996000   
439.000000	1.990000   
439.500000	2.514000   
440.000000	2.239000   
440.500000	1.841000   
441.000000	1.929000   
441.500000	2.260000   
442.000000	2.262000   
442.500000	2.192000   
443.000000	1.871000   
443.500000	2.332000   
444.000000	2.099000   
444.500000	2.263000   
445.000000	2.121000   
445.500000	2.046000   
446.000000	1.821000   
446.500000	2.193000   
447.000000	2.218000   
447.500000	2.552000   
448.000000	2.223000   
448.500000	2.119000   
449.000000	2.513000   
449.500000	2.326000   
450.000000	2.223000   
450.500000	2.451000   
451.000000	2.750000   
451.500000	2.392000   
452.000000	2.500000   
452.500000	2.607000   
453.000000	2.909000   
453.500000	2.572000   
454.000000	2.385000   
454.500000	2.573000   
455.000000	2.751000   
455.500000	3.113000   
456.000000	2.959000   
456.500000	2.839000   
457.000000	2.767000   
457.500000	2.430000   
458.000000	3.038000   
458.500000	2.580000   
459.000000	3.135000   
459.500000	2.898000   
460.000000	2.979000   
460.500000	2.784000   
461.000000	2.615000   
461.500000	2.954000   
462.000000	2.561000   
462.500000	2.785000   
463.000000	2.802000   
463.500000	2.873000   
464.000000	3.221000   
464.500000	3.532000   
465.000000	2.902000   
465.500000	2.525000   
466.000000	2.568000   
466.500000	2.618000   
467.000000	2.768000   
467.500000	2.850000   
468.000000	2.738000   
468.500000	2.424000   
469.000000	2.721000   
469.500000	3.027000   
470.000000	3.098000   
470.500000	2.843000   
471.000000	2.956000   
471.500000	2.568000   
472.000000	2.738000   
472.500000	2.554000   
473.000000	2.699000   
473.500000	2.923000   
474.000000	3.033000   
474.500000	2.708000   
475.000000	2.752000   
475.500000	2.641000   
476.000000	3.188000   
476.500000	2.784000   
477.000000	2.995000   
477.500000	3.248000   
478.000000	3.322000   
478.500000	3.644000   
479.000000	3.384000   
479.500000	3.443000   
480.000000	3.544000   
480.500000	3.446000   
481.000000	3.558000   
481.500000	3.192000   
482.000000	3.308000   
482.500000	3.744000   
483.000000	3.236000   
483.500000	3.271000   
484.000000	4.003000   
484.500000	3.921000   
485.000000	3.481000   
485.500000	4.146000   
486.000000	3.893000   
486.500000	4.226000   
487.000000	4.349000   
487.500000	4.564000   
488.000000	4.532000   
488.500000	4.714000   
489.000000	4.303000   
489.500000	4.554000   
490.000000	4.860000   
490.500000	4.870000   
491.000000	5.153000   
491.500000	5.114000   
492.000000	5.545000   
492.500000	5.361000   
493.000000	5.213000   
493.500000	5.703000   
494.000000	5.578000   
494.500000	5.583000   
495.000000	5.709000   
495.500000	5.620000   
496.000000	5.861000   
496.500000	6.160000   
497.000000	5.883000   
497.500000	6.066000   
498.000000	5.841000   
498.500000	6.504000   
499.000000	6.196000   
499.500000	6.726000   
500.000000	7.207000   
500.500000	7.681000   
501.000000	8.394000   
501.500000	8.611000   
502.000000	9.310000   
502.500000	10.001000  
503.000000	11.223000  
503.500000	11.792000  
504.000000	13.767000  
504.500000	15.071000  
505.000000	19.167000  
505.500000	22.465000  
506.000000	26.024000  
506.500000	30.341000  
507.000000	35.743000  
507.500000	43.883000  
508.000000	52.456000  
508.500000	59.971000  
509.000000	75.063000  
509.500000	87.967000  
510.000000	112.620000 
510.500000	128.830000 
511.000000	147.207000 
511.500000	171.317000 
512.000000	195.132000 
512.500000	223.222000 
513.000000	247.380000 
513.500000	275.466000 
514.000000	313.186000 
514.500000	341.462000 
515.000000	376.830000 
515.500000	403.500000 
516.000000	434.514000 
516.500000	472.950000 
517.000000	510.828000 
517.500000	545.426000 
518.000000	566.516000 
518.500000	588.006000 
519.000000	633.538000 
519.500000	661.787000 
520.000000	678.101000 
520.500000	690.342000 
521.000000	707.139000 
521.500000	732.642000 
522.000000	747.280999 
522.500000	759.266000 
523.000000	774.142000 
523.500000	769.884000 
524.000000	780.552000 
524.500000	789.160999 
525.000000	789.723000 
525.500000	798.136999 
526.000000	800.796000 
526.500000	807.554000 
527.000000	800.206000 
527.500000	800.978000 
528.000000	796.530999 
528.500000	788.651000 
529.000000	786.205000 
529.500000	786.595000 
530.000000	774.441000 
530.500000	770.389000 
531.000000	752.336000 
531.500000	744.026000 
532.000000	735.837000 
532.500000	726.830000 
533.000000	713.328000 
533.500000	706.432000 
534.000000	687.852000 
534.500000	675.261000 
535.000000	655.541000 
535.500000	637.068000 
536.000000	619.277000 
536.500000	606.760000 
537.000000	580.982999 
537.500000	555.784000 
538.000000	526.885000 
538.500000	501.955000 
539.000000	476.906000 
539.500000	450.663000 
540.000000	427.690000 
540.500000	402.161000 
541.000000	375.458000 
541.500000	348.617000 
542.000000	329.111000 
542.500000	296.536000 
543.000000	269.740000 
543.500000	247.939000 
544.000000	230.392000 
544.500000	205.555000 
545.000000	191.059000 
545.500000	169.465000 
546.000000	156.927000 
546.500000	136.228000 
547.000000	125.227000 
547.500000	110.784000 
548.000000	101.075000 
548.500000	88.923000  

