PE FL                   SPECTRUM    ASCII       PEDS        1.60        
  -1
017006~1.SP
19/01/24
10:45:58.00
19/01/24
10:45:58.00


548.500000
1









LS45
455.00
10.00
10.00
SCAN
1
16
100
100
0
600
0
1
0
1
7
ON
435 365 
0 0 0
#HDR
-1
-1
#GR
NM
INT 
0.00002384185791015625
0.0
230.000000
0.500000
638
8
232.388000
0.035000
#DATA
230.000000	0.667000   
230.500000	0.635000   
231.000000	0.597000   
231.500000	0.793000   
232.000000	0.611000   
232.500000	0.630000   
233.000000	0.556000   
233.500000	0.494000   
234.000000	0.462000   
234.500000	0.369000   
235.000000	0.413000   
235.500000	0.482000   
236.000000	0.419000   
236.500000	0.367000   
237.000000	0.428000   
237.500000	0.365000   
238.000000	0.401000   
238.500000	0.404000   
239.000000	0.364000   
239.500000	0.377000   
240.000000	0.399000   
240.500000	0.433000   
241.000000	0.569000   
241.500000	0.455000   
242.000000	0.562999   
242.500000	0.604000   
243.000000	0.641000   
243.500000	0.612000   
244.000000	0.697000   
244.500000	0.625000   
245.000000	0.643000   
245.500000	0.625000   
246.000000	0.736000   
246.500000	0.704000   
247.000000	0.665000   
247.500000	0.698000   
248.000000	0.590000   
248.500000	0.711000   
249.000000	0.687000   
249.500000	0.472000   
250.000000	0.527000   
250.500000	0.467000   
251.000000	0.434000   
251.500000	0.422000   
252.000000	0.398000   
252.500000	0.391000   
253.000000	0.343000   
253.500000	0.249000   
254.000000	0.229000   
254.500000	0.293000   
255.000000	0.245000   
255.500000	0.230000   
256.000000	0.205000   
256.500000	0.219000   
257.000000	0.114000   
257.500000	0.104000   
258.000000	0.073000   
258.500000	0.080000   
259.000000	0.061000   
259.500000	0.070000   
260.000000	0.049000   
260.500000	0.083000   
261.000000	0.048000   
261.500000	0.052000   
262.000000	0.043000   
262.500000	0.063000   
263.000000	0.085000   
263.500000	0.074000   
264.000000	0.058000   
264.500000	0.082000   
265.000000	0.060000   
265.500000	0.055000   
266.000000	0.083000   
266.500000	0.071999   
267.000000	0.057000   
267.500000	0.070999   
268.000000	0.039000   
268.500000	0.071999   
269.000000	0.075000   
269.500000	0.070000   
270.000000	0.092000   
270.500000	0.083000   
271.000000	0.035000   
271.500000	0.059000   
272.000000	0.119000   
272.500000	0.135000   
273.000000	0.097000   
273.500000	0.066000   
274.000000	0.085000   
274.500000	0.130000   
275.000000	0.083000   
275.500000	0.124000   
276.000000	0.108000   
276.500000	0.045000   
277.000000	0.071999   
277.500000	0.118000   
278.000000	0.142000   
278.500000	0.069000   
279.000000	0.046000   
279.500000	0.102000   
280.000000	0.124000   
280.500000	0.117000   
281.000000	0.105000   
281.500000	0.076000   
282.000000	0.074000   
282.500000	0.128000   
283.000000	0.159000   
283.500000	0.058000   
284.000000	0.057000   
284.500000	0.065000   
285.000000	0.125000   
285.500000	0.086999   
286.000000	0.069000   
286.500000	0.094000   
287.000000	0.113000   
287.500000	0.136000   
288.000000	0.139000   
288.500000	0.154000   
289.000000	0.166000   
289.500000	0.157000   
290.000000	0.145000   
290.500000	0.120000   
291.000000	0.082000   
291.500000	0.128000   
292.000000	0.142000   
292.500000	0.159000   
293.000000	0.149000   
293.500000	0.125000   
294.000000	0.166000   
294.500000	0.146000   
295.000000	0.155000   
295.500000	0.159000   
296.000000	0.145000   
296.500000	0.141000   
297.000000	0.148000   
297.500000	0.163000   
298.000000	0.184000   
298.500000	0.215000   
299.000000	0.099000   
299.500000	0.114000   
300.000000	0.130000   
300.500000	0.175000   
301.000000	0.191000   
301.500000	0.169000   
302.000000	0.162000   
302.500000	0.217000   
303.000000	0.169000   
303.500000	0.195000   
304.000000	0.195000   
304.500000	0.191000   
305.000000	0.139000   
305.500000	0.171000   
306.000000	0.219000   
306.500000	0.231000   
307.000000	0.247000   
307.500000	0.301000   
308.000000	0.167000   
308.500000	0.186000   
309.000000	0.257000   
309.500000	0.191000   
310.000000	0.238000   
310.500000	0.242000   
311.000000	0.149000   
311.500000	0.192000   
312.000000	0.188000   
312.500000	0.222000   
313.000000	0.220000   
313.500000	0.285000   
314.000000	0.282000   
314.500000	0.260000   
315.000000	0.210000   
315.500000	0.195000   
316.000000	0.241000   
316.500000	0.239000   
317.000000	0.236000   
317.500000	0.305000   
318.000000	0.273000   
318.500000	0.231000   
319.000000	0.288000   
319.500000	0.231000   
320.000000	0.229000   
320.500000	0.268000   
321.000000	0.221000   
321.500000	0.225000   
322.000000	0.234000   
322.500000	0.301000   
323.000000	0.264000   
323.500000	0.336000   
324.000000	0.371000   
324.500000	0.394000   
325.000000	0.399000   
325.500000	0.266000   
326.000000	0.304000   
326.500000	0.300000   
327.000000	0.270000   
327.500000	0.328000   
328.000000	0.308000   
328.500000	0.329000   
329.000000	0.389000   
329.500000	0.432000   
330.000000	0.368000   
330.500000	0.253000   
331.000000	0.429000   
331.500000	0.347000   
332.000000	0.415000   
332.500000	0.439000   
333.000000	0.321000   
333.500000	0.277000   
334.000000	0.351000   
334.500000	0.359000   
335.000000	0.380000   
335.500000	0.335000   
336.000000	0.262000   
336.500000	0.347000   
337.000000	0.438000   
337.500000	0.347000   
338.000000	0.349000   
338.500000	0.337000   
339.000000	0.309000   
339.500000	0.356000   
340.000000	0.348000   
340.500000	0.308000   
341.000000	0.259000   
341.500000	0.227000   
342.000000	0.328000   
342.500000	0.366000   
343.000000	0.407000   
343.500000	0.303000   
344.000000	0.312000   
344.500000	0.294000   
345.000000	0.302000   
345.500000	0.403000   
346.000000	0.403000   
346.500000	0.325000   
347.000000	0.346000   
347.500000	0.313000   
348.000000	0.296000   
348.500000	0.289000   
349.000000	0.322000   
349.500000	0.281000   
350.000000	0.283000   
350.500000	0.250000   
351.000000	0.254000   
351.500000	0.348000   
352.000000	0.290000   
352.500000	0.326000   
353.000000	0.308000   
353.500000	0.314000   
354.000000	0.337000   
354.500000	0.250000   
355.000000	0.296000   
355.500000	0.288000   
356.000000	0.301000   
356.500000	0.305000   
357.000000	0.293000   
357.500000	0.310000   
358.000000	0.230000   
358.500000	0.286000   
359.000000	0.324000   
359.500000	0.293000   
360.000000	0.276000   
360.500000	0.223000   
361.000000	0.225000   
361.500000	0.280000   
362.000000	0.308000   
362.500000	0.274000   
363.000000	0.312000   
363.500000	0.331000   
364.000000	0.240000   
364.500000	0.207000   
365.000000	0.238000   
365.500000	0.210000   
366.000000	0.276000   
366.500000	0.323000   
367.000000	0.310000   
367.500000	0.237000   
368.000000	0.205000   
368.500000	0.189000   
369.000000	0.294000   
369.500000	0.313000   
370.000000	0.198000   
370.500000	0.228000   
371.000000	0.278000   
371.500000	0.284000   
372.000000	0.249000   
372.500000	0.227000   
373.000000	0.293000   
373.500000	0.277000   
374.000000	0.279000   
374.500000	0.243000   
375.000000	0.243000   
375.500000	0.281000   
376.000000	0.256000   
376.500000	0.307000   
377.000000	0.223000   
377.500000	0.255000   
378.000000	0.271000   
378.500000	0.276000   
379.000000	0.265000   
379.500000	0.303000   
380.000000	0.255000   
380.500000	0.324000   
381.000000	0.294000   
381.500000	0.306000   
382.000000	0.208000   
382.500000	0.317000   
383.000000	0.293000   
383.500000	0.210000   
384.000000	0.253000   
384.500000	0.245000   
385.000000	0.235000   
385.500000	0.246000   
386.000000	0.269000   
386.500000	0.274000   
387.000000	0.246000   
387.500000	0.261000   
388.000000	0.332000   
388.500000	0.215000   
389.000000	0.306000   
389.500000	0.292000   
390.000000	0.212000   
390.500000	0.282000   
391.000000	0.310000   
391.500000	0.315000   
392.000000	0.341000   
392.500000	0.414000   
393.000000	0.290000   
393.500000	0.254000   
394.000000	0.300000   
394.500000	0.330000   
395.000000	0.348000   
395.500000	0.328000   
396.000000	0.295000   
396.500000	0.284000   
397.000000	0.265000   
397.500000	0.295000   
398.000000	0.355000   
398.500000	0.415000   
399.000000	0.327000   
399.500000	0.404000   
400.000000	0.225000   
400.500000	0.331000   
401.000000	0.360000   
401.500000	0.390000   
402.000000	0.399000   
402.500000	0.483000   
403.000000	0.322000   
403.500000	0.280000   
404.000000	0.424000   
404.500000	0.398000   
405.000000	0.397000   
405.500000	0.329000   
406.000000	0.351000   
406.500000	0.452000   
407.000000	0.378000   
407.500000	0.421000   
408.000000	0.483000   
408.500000	0.403000   
409.000000	0.518000   
409.500000	0.460000   
410.000000	0.534000   
410.500000	0.497000   
411.000000	0.502000   
411.500000	0.464000   
412.000000	0.410000   
412.500000	0.413000   
413.000000	0.400000   
413.500000	0.436000   
414.000000	0.524000   
414.500000	0.470000   
415.000000	0.520000   
415.500000	0.610000   
416.000000	0.515000   
416.500000	0.522000   
417.000000	0.560000   
417.500000	0.531000   
418.000000	0.550000   
418.500000	0.514000   
419.000000	0.578000   
419.500000	0.613000   
420.000000	0.578000   
420.500000	0.656000   
421.000000	0.563999   
421.500000	0.629000   
422.000000	0.708000   
422.500000	0.579000   
423.000000	0.704000   
423.500000	0.703000   
424.000000	0.530000   
424.500000	0.666000   
425.000000	0.699000   
425.500000	0.724000   
426.000000	0.678000   
426.500000	0.595000   
427.000000	0.612000   
427.500000	0.684000   
428.000000	0.747000   
428.500000	0.797000   
429.000000	0.740000   
429.500000	0.808000   
430.000000	0.824000   
430.500000	1.018000   
431.000000	1.170000   
431.500000	1.356000   
432.000000	1.336000   
432.500000	1.549000   
433.000000	2.039000   
433.500000	2.793000   
434.000000	3.713000   
434.500000	5.196000   
435.000000	6.648000   
435.500000	8.492000   
436.000000	10.580000  
436.500000	12.890000  
437.000000	16.213000  
437.500000	20.179000  
438.000000	26.054000  
438.500000	29.585000  
439.000000	36.861000  
439.500000	42.736000  
440.000000	50.290000  
440.500000	59.980000  
441.000000	69.508000  
441.500000	76.084000  
442.000000	86.291000  
442.500000	97.053000  
443.000000	108.448000 
443.500000	119.435000 
444.000000	131.948000 
444.500000	143.081000 
445.000000	153.820000 
445.500000	165.501000 
446.000000	174.277000 
446.500000	186.370000 
447.000000	196.222000 
447.500000	205.471000 
448.000000	209.424000 
448.500000	217.053000 
449.000000	218.835000 
449.500000	226.130000 
450.000000	229.564000 
450.500000	231.152000 
451.000000	232.388000 
451.500000	229.852000 
452.000000	225.852000 
452.500000	223.405000 
453.000000	217.737000 
453.500000	208.985000 
454.000000	204.484000 
454.500000	196.041000 
455.000000	187.152000 
455.500000	176.949000 
456.000000	167.790000 
456.500000	154.646000 
457.000000	145.996000 
457.500000	134.108000 
458.000000	126.268000 
458.500000	114.118000 
459.000000	105.305000 
459.500000	93.769000  
460.000000	84.999000  
460.500000	76.669000  
461.000000	69.165000  
461.500000	61.698000  
462.000000	51.881000  
462.500000	44.167000  
463.000000	38.174000  
463.500000	33.372000  
464.000000	28.087000  
464.500000	24.211000  
465.000000	19.875000  
465.500000	16.291000  
466.000000	13.080000  
466.500000	10.758000  
467.000000	8.749000   
467.500000	7.007000   
468.000000	5.025000   
468.500000	4.271000   
469.000000	3.515000   
469.500000	3.075000   
470.000000	2.397000   
470.500000	1.970000   
471.000000	1.926000   
471.500000	2.005000   
472.000000	1.715000   
472.500000	1.626000   
473.000000	1.761000   
473.500000	1.609000   
474.000000	1.748000   
474.500000	1.663000   
475.000000	1.691000   
475.500000	1.809000   
476.000000	1.717000   
476.500000	1.718000   
477.000000	1.781000   
477.500000	1.902000   
478.000000	2.176000   
478.500000	2.256000   
479.000000	2.549000   
479.500000	2.597000   
480.000000	2.572000   
480.500000	2.501000   
481.000000	2.926000   
481.500000	3.478000   
482.000000	3.276000   
482.500000	3.401000   
483.000000	3.642000   
483.500000	3.898000   
484.000000	4.073000   
484.500000	4.333000   
485.000000	4.529000   
485.500000	4.539000   
486.000000	4.841000   
486.500000	5.213000   
487.000000	5.531000   
487.500000	5.953000   
488.000000	6.135000   
488.500000	5.726000   
489.000000	6.235000   
489.500000	7.316000   
490.000000	7.070000   
490.500000	6.565000   
491.000000	7.038000   
491.500000	6.934000   
492.000000	7.059000   
492.500000	7.277000   
493.000000	7.438000   
493.500000	7.316000   
494.000000	6.847000   
494.500000	7.206000   
495.000000	7.073000   
495.500000	6.882000   
496.000000	6.476000   
496.500000	6.189000   
497.000000	5.546000   
497.500000	5.201000   
498.000000	5.421000   
498.500000	5.431000   
499.000000	4.869000   
499.500000	4.441000   
500.000000	4.212000   
500.500000	3.927000   
501.000000	3.639000   
501.500000	3.209000   
502.000000	3.169000   
502.500000	2.785000   
503.000000	2.767000   
503.500000	2.316000   
504.000000	2.084000   
504.500000	2.059000   
505.000000	1.818000   
505.500000	1.579000   
506.000000	1.114000   
506.500000	1.020000   
507.000000	0.991000   
507.500000	0.851000   
508.000000	0.836000   
508.500000	0.699000   
509.000000	0.640000   
509.500000	0.653000   
510.000000	0.695000   
510.500000	0.550000   
511.000000	0.658000   
511.500000	0.520000   
512.000000	0.661000   
512.500000	0.686000   
513.000000	0.695000   
513.500000	0.647000   
514.000000	0.809000   
514.500000	0.976000   
515.000000	1.045000   
515.500000	1.061000   
516.000000	1.042000   
516.500000	1.241000   
517.000000	1.395000   
517.500000	1.433000   
518.000000	1.606000   
518.500000	1.643000   
519.000000	1.619000   
519.500000	1.774000   
520.000000	1.911000   
520.500000	2.046000   
521.000000	2.310000   
521.500000	2.563000   
522.000000	2.810000   
522.500000	2.814000   
523.000000	2.810000   
523.500000	3.015000   
524.000000	3.169000   
524.500000	3.310000   
525.000000	3.747000   
525.500000	3.856000   
526.000000	4.113000   
526.500000	3.884000   
527.000000	3.819000   
527.500000	4.169000   
528.000000	4.197000   
528.500000	4.474000   
529.000000	4.599000   
529.500000	4.719000   
530.000000	4.385000   
530.500000	4.789000   
531.000000	4.848000   
531.500000	4.780000   
532.000000	4.724000   
532.500000	4.821000   
533.000000	4.829000   
533.500000	4.853000   
534.000000	4.864000   
534.500000	4.800000   
535.000000	4.545000   
535.500000	4.440000   
536.000000	4.373000   
536.500000	4.491000   
537.000000	4.170000   
537.500000	3.873000   
538.000000	3.846000   
538.500000	3.872000   
539.000000	3.742000   
539.500000	3.356000   
540.000000	3.288000   
540.500000	3.343000   
541.000000	2.882000   
541.500000	2.718000   
542.000000	2.754000   
542.500000	2.548000   
543.000000	2.429000   
543.500000	2.393000   
544.000000	2.213000   
544.500000	1.908000   
545.000000	1.828000   
545.500000	1.664000   
546.000000	1.707000   
546.500000	1.341000   
547.000000	1.259000   
547.500000	1.070000   
548.000000	1.000000   
548.500000	1.071000   

