PE FL                   SPECTRUM    ASCII       PEDS        1.60        
  -1
0124DI~4.SP
19/01/24
10:29:23.00
19/01/24
10:29:23.00


548.500000
1









LS45
345.00
10.00
10.00
SCAN
1
16
100
100
0
600
0
1
0
1
7
ON
435 365 
0 0 0
#HDR
-1
-1
#GR
NM
INT 
0.00002384185791015625
0.0
230.000000
0.500000
638
8
511.276000
0.057000
#DATA
230.000000	0.057000   
230.500000	0.172000   
231.000000	0.128000   
231.500000	0.135000   
232.000000	0.115000   
232.500000	0.097000   
233.000000	0.154000   
233.500000	0.085000   
234.000000	0.142000   
234.500000	0.101000   
235.000000	0.194000   
235.500000	0.208000   
236.000000	0.186000   
236.500000	0.155000   
237.000000	0.116000   
237.500000	0.187000   
238.000000	0.139000   
238.500000	0.129000   
239.000000	0.108000   
239.500000	0.176000   
240.000000	0.196000   
240.500000	0.187000   
241.000000	0.155000   
241.500000	0.140000   
242.000000	0.188000   
242.500000	0.232000   
243.000000	0.175000   
243.500000	0.189000   
244.000000	0.138000   
244.500000	0.095000   
245.000000	0.160000   
245.500000	0.163000   
246.000000	0.168000   
246.500000	0.170000   
247.000000	0.205000   
247.500000	0.178000   
248.000000	0.119000   
248.500000	0.186000   
249.000000	0.220000   
249.500000	0.294000   
250.000000	0.265000   
250.500000	0.150000   
251.000000	0.215000   
251.500000	0.190000   
252.000000	0.160000   
252.500000	0.193000   
253.000000	0.165000   
253.500000	0.250000   
254.000000	0.320000   
254.500000	0.243000   
255.000000	0.232000   
255.500000	0.193000   
256.000000	0.201000   
256.500000	0.177000   
257.000000	0.196000   
257.500000	0.188000   
258.000000	0.152000   
258.500000	0.153000   
259.000000	0.186000   
259.500000	0.235000   
260.000000	0.168000   
260.500000	0.203000   
261.000000	0.261000   
261.500000	0.241000   
262.000000	0.250000   
262.500000	0.168000   
263.000000	0.198000   
263.500000	0.190000   
264.000000	0.166000   
264.500000	0.221000   
265.000000	0.227000   
265.500000	0.227000   
266.000000	0.238000   
266.500000	0.364000   
267.000000	0.249000   
267.500000	0.240000   
268.000000	0.240000   
268.500000	0.247000   
269.000000	0.337000   
269.500000	0.285000   
270.000000	0.194000   
270.500000	0.192000   
271.000000	0.249000   
271.500000	0.419000   
272.000000	0.316000   
272.500000	0.334000   
273.000000	0.325000   
273.500000	0.315000   
274.000000	0.276000   
274.500000	0.289000   
275.000000	0.284000   
275.500000	0.307000   
276.000000	0.328000   
276.500000	0.327000   
277.000000	0.365000   
277.500000	0.296000   
278.000000	0.272000   
278.500000	0.360000   
279.000000	0.333000   
279.500000	0.354000   
280.000000	0.344000   
280.500000	0.277000   
281.000000	0.252000   
281.500000	0.350000   
282.000000	0.470000   
282.500000	0.469000   
283.000000	0.486000   
283.500000	0.464000   
284.000000	0.548000   
284.500000	0.522000   
285.000000	0.430000   
285.500000	0.525000   
286.000000	0.507000   
286.500000	0.355000   
287.000000	0.457000   
287.500000	0.342000   
288.000000	0.478000   
288.500000	0.446000   
289.000000	0.439000   
289.500000	0.453000   
290.000000	0.428000   
290.500000	0.442000   
291.000000	0.456000   
291.500000	0.597000   
292.000000	0.481000   
292.500000	0.599000   
293.000000	0.508000   
293.500000	0.520000   
294.000000	0.528000   
294.500000	0.618000   
295.000000	0.588000   
295.500000	0.731000   
296.000000	0.652000   
296.500000	0.643000   
297.000000	0.665000   
297.500000	0.591000   
298.000000	0.654000   
298.500000	0.917000   
299.000000	0.801000   
299.500000	0.776000   
300.000000	0.884000   
300.500000	0.719000   
301.000000	0.739000   
301.500000	0.767000   
302.000000	0.780000   
302.500000	0.855000   
303.000000	0.812999   
303.500000	0.864000   
304.000000	0.972000   
304.500000	0.866000   
305.000000	1.001000   
305.500000	1.068000   
306.000000	1.028000   
306.500000	1.023000   
307.000000	1.086000   
307.500000	1.193000   
308.000000	1.319000   
308.500000	1.275000   
309.000000	1.373000   
309.500000	1.162000   
310.000000	1.336000   
310.500000	1.460000   
311.000000	1.227000   
311.500000	1.205000   
312.000000	1.397000   
312.500000	1.561000   
313.000000	1.609000   
313.500000	1.431000   
314.000000	1.600000   
314.500000	1.577000   
315.000000	1.459000   
315.500000	1.715000   
316.000000	1.833000   
316.500000	1.700000   
317.000000	1.966000   
317.500000	1.873000   
318.000000	1.899000   
318.500000	1.973000   
319.000000	1.901000   
319.500000	2.124000   
320.000000	2.403000   
320.500000	2.514000   
321.000000	2.725000   
321.500000	2.923000   
322.000000	3.152000   
322.500000	3.594000   
323.000000	4.661000   
323.500000	5.327000   
324.000000	7.036000   
324.500000	9.147000   
325.000000	11.593000  
325.500000	13.666000  
326.000000	18.109000  
326.500000	22.271000  
327.000000	27.952000  
327.500000	34.508000  
328.000000	42.405000  
328.500000	50.952000  
329.000000	63.161000  
329.500000	75.027000  
330.000000	89.860000  
330.500000	105.206000 
331.000000	120.748000 
331.500000	138.354000 
332.000000	158.035000 
332.500000	182.291000 
333.000000	205.480000 
333.500000	228.214000 
334.000000	246.440000 
334.500000	274.154000 
335.000000	297.484000 
335.500000	325.717000 
336.000000	347.118000 
336.500000	373.825000 
337.000000	392.658000 
337.500000	420.769000 
338.000000	431.534000 
338.500000	455.793000 
339.000000	472.396000 
339.500000	486.687000 
340.000000	492.663000 
340.500000	499.302000 
341.000000	505.247000 
341.500000	507.281000 
342.000000	511.276000 
342.500000	508.840000 
343.000000	500.846000 
343.500000	491.253000 
344.000000	480.146000 
344.500000	464.903000 
345.000000	450.980000 
345.500000	433.745000 
346.000000	411.042000 
346.500000	387.172000 
347.000000	365.820000 
347.500000	343.433000 
348.000000	312.684000 
348.500000	292.747000 
349.000000	266.427000 
349.500000	248.017000 
350.000000	219.934000 
350.500000	195.654000 
351.000000	167.123000 
351.500000	149.851000 
352.000000	130.106000 
352.500000	115.010000 
353.000000	99.538000  
353.500000	86.175000  
354.000000	71.747000  
354.500000	60.333000  
355.000000	49.365000  
355.500000	39.087000  
356.000000	32.602000  
356.500000	28.426000  
357.000000	23.100000  
357.500000	18.607000  
358.000000	16.003000  
358.500000	12.675000  
359.000000	10.962000  
359.500000	8.557000   
360.000000	8.271000   
360.500000	7.477000   
361.000000	6.778000   
361.500000	6.339000   
362.000000	5.839000   
362.500000	5.549000   
363.000000	5.905000   
363.500000	5.358000   
364.000000	5.753000   
364.500000	5.663000   
365.000000	5.216000   
365.500000	5.271000   
366.000000	5.613000   
366.500000	5.480000   
367.000000	5.954000   
367.500000	6.575000   
368.000000	6.996000   
368.500000	6.981000   
369.000000	7.668000   
369.500000	8.134000   
370.000000	9.259000   
370.500000	10.133000  
371.000000	12.008000  
371.500000	12.705000  
372.000000	13.721000  
372.500000	14.668000  
373.000000	16.978000  
373.500000	19.448000  
374.000000	21.192000  
374.500000	22.310000  
375.000000	24.785000  
375.500000	27.379000  
376.000000	29.415000  
376.500000	31.193000  
377.000000	34.207000  
377.500000	37.182000  
378.000000	39.402000  
378.500000	42.808000  
379.000000	44.625000  
379.500000	49.010000  
380.000000	51.152000  
380.500000	53.322000  
381.000000	54.863000  
381.500000	57.217000  
382.000000	58.207000  
382.500000	61.969000  
383.000000	64.328000  
383.500000	65.399000  
384.000000	67.887000  
384.500000	69.952000  
385.000000	70.203999  
385.500000	70.632000  
386.000000	71.145000  
386.500000	70.373000  
387.000000	72.034000  
387.500000	70.700999  
388.000000	69.669000  
388.500000	68.765000  
389.000000	66.156000  
389.500000	66.367999  
390.000000	64.917000  
390.500000	63.330000  
391.000000	60.701000  
391.500000	59.019000  
392.000000	55.999000  
392.500000	54.402000  
393.000000	50.378000  
393.500000	46.976000  
394.000000	46.595000  
394.500000	42.037000  
395.000000	39.764000  
395.500000	37.396000  
396.000000	35.365000  
396.500000	32.319000  
397.000000	29.171000  
397.500000	26.124000  
398.000000	25.306000  
398.500000	23.049000  
399.000000	21.064000  
399.500000	18.631000  
400.000000	16.196000  
400.500000	14.685000  
401.000000	13.323000  
401.500000	11.734000  
402.000000	11.000000  
402.500000	10.126000  
403.000000	8.768000   
403.500000	7.770000   
404.000000	6.380000   
404.500000	5.973000   
405.000000	5.349000   
405.500000	4.796000   
406.000000	4.340000   
406.500000	3.876000   
407.000000	3.597000   
407.500000	2.871000   
408.000000	2.716000   
408.500000	2.891000   
409.000000	2.606000   
409.500000	2.028000   
410.000000	2.001000   
410.500000	1.920000   
411.000000	1.950000   
411.500000	1.817000   
412.000000	1.749000   
412.500000	1.663000   
413.000000	1.503000   
413.500000	1.468000   
414.000000	1.409000   
414.500000	1.309000   
415.000000	1.395000   
415.500000	1.098000   
416.000000	1.027000   
416.500000	1.267000   
417.000000	1.079000   
417.500000	1.087000   
418.000000	1.192000   
418.500000	1.446000   
419.000000	1.282000   
419.500000	1.287000   
420.000000	1.186000   
420.500000	1.189000   
421.000000	1.168000   
421.500000	1.029000   
422.000000	1.098000   
422.500000	1.067000   
423.000000	1.520000   
423.500000	1.312000   
424.000000	1.068000   
424.500000	1.018000   
425.000000	1.025000   
425.500000	0.990000   
426.000000	1.016000   
426.500000	1.140000   
427.000000	1.175000   
427.500000	1.194000   
428.000000	1.168000   
428.500000	1.071000   
429.000000	0.952000   
429.500000	0.897000   
430.000000	0.945000   
430.500000	1.048000   
431.000000	1.045000   
431.500000	0.920000   
432.000000	0.947000   
432.500000	0.932000   
433.000000	0.905000   
433.500000	0.935000   
434.000000	0.812000   
434.500000	0.873000   
435.000000	0.952000   
435.500000	0.895000   
436.000000	0.916000   
436.500000	0.917000   
437.000000	0.968000   
437.500000	0.860000   
438.000000	0.816999   
438.500000	1.029000   
439.000000	1.019000   
439.500000	1.062000   
440.000000	0.910000   
440.500000	0.965000   
441.000000	0.987000   
441.500000	0.961000   
442.000000	0.972000   
442.500000	0.972000   
443.000000	0.957000   
443.500000	0.871000   
444.000000	0.933000   
444.500000	0.968000   
445.000000	0.843000   
445.500000	0.925000   
446.000000	0.891000   
446.500000	0.807000   
447.000000	0.916000   
447.500000	0.865000   
448.000000	0.996000   
448.500000	0.908000   
449.000000	0.793000   
449.500000	0.823000   
450.000000	0.797000   
450.500000	0.955000   
451.000000	0.860000   
451.500000	1.065000   
452.000000	0.829000   
452.500000	0.961000   
453.000000	0.959000   
453.500000	0.803000   
454.000000	0.877000   
454.500000	0.775000   
455.000000	1.008000   
455.500000	0.965000   
456.000000	1.022000   
456.500000	0.808000   
457.000000	0.973000   
457.500000	0.956000   
458.000000	0.924000   
458.500000	1.012000   
459.000000	0.863000   
459.500000	0.833000   
460.000000	0.847000   
460.500000	0.960000   
461.000000	0.865000   
461.500000	1.002000   
462.000000	0.829000   
462.500000	0.786000   
463.000000	0.876000   
463.500000	0.976000   
464.000000	0.890000   
464.500000	0.860000   
465.000000	0.917000   
465.500000	0.976000   
466.000000	0.870000   
466.500000	0.750000   
467.000000	0.718000   
467.500000	0.824000   
468.000000	0.844000   
468.500000	0.681000   
469.000000	0.771000   
469.500000	0.584000   
470.000000	0.768000   
470.500000	0.805000   
471.000000	0.767000   
471.500000	0.662000   
472.000000	0.579000   
472.500000	0.691999   
473.000000	0.682000   
473.500000	0.674000   
474.000000	0.741000   
474.500000	0.840000   
475.000000	0.839000   
475.500000	0.736000   
476.000000	0.631000   
476.500000	0.733000   
477.000000	0.562999   
477.500000	0.601000   
478.000000	0.561000   
478.500000	0.566999   
479.000000	0.659000   
479.500000	0.747000   
480.000000	0.627000   
480.500000	0.638000   
481.000000	0.658000   
481.500000	0.768000   
482.000000	0.776000   
482.500000	0.733000   
483.000000	0.828000   
483.500000	0.664000   
484.000000	0.727000   
484.500000	0.804000   
485.000000	0.922000   
485.500000	0.829000   
486.000000	0.755000   
486.500000	0.769000   
487.000000	0.698000   
487.500000	0.856000   
488.000000	0.960000   
488.500000	0.873000   
489.000000	0.780000   
489.500000	0.757000   
490.000000	0.730000   
490.500000	0.861000   
491.000000	0.865000   
491.500000	0.735000   
492.000000	0.665000   
492.500000	0.778000   
493.000000	0.703000   
493.500000	0.726000   
494.000000	0.715000   
494.500000	0.785000   
495.000000	0.805000   
495.500000	0.838000   
496.000000	0.773000   
496.500000	0.712000   
497.000000	0.816999   
497.500000	0.719000   
498.000000	0.751000   
498.500000	0.505000   
499.000000	0.486000   
499.500000	0.642000   
500.000000	0.541000   
500.500000	0.644000   
501.000000	0.635000   
501.500000	0.537000   
502.000000	0.678000   
502.500000	0.658000   
503.000000	0.496000   
503.500000	0.573000   
504.000000	0.581000   
504.500000	0.594000   
505.000000	0.552000   
505.500000	0.625000   
506.000000	0.625000   
506.500000	0.530000   
507.000000	0.419000   
507.500000	0.503000   
508.000000	0.518000   
508.500000	0.551000   
509.000000	0.666000   
509.500000	0.730000   
510.000000	0.650000   
510.500000	0.463000   
511.000000	0.496000   
511.500000	0.478000   
512.000000	0.684000   
512.500000	0.715000   
513.000000	0.543000   
513.500000	0.607000   
514.000000	0.617000   
514.500000	0.584000   
515.000000	0.515000   
515.500000	0.562999   
516.000000	0.465000   
516.500000	0.508000   
517.000000	0.586000   
517.500000	0.515000   
518.000000	0.485000   
518.500000	0.761000   
519.000000	0.676000   
519.500000	0.579000   
520.000000	0.537000   
520.500000	0.710000   
521.000000	0.461000   
521.500000	0.585000   
522.000000	0.522000   
522.500000	0.511000   
523.000000	0.716000   
523.500000	0.733000   
524.000000	0.539000   
524.500000	0.551000   
525.000000	0.535000   
525.500000	0.619000   
526.000000	0.442000   
526.500000	0.418000   
527.000000	0.381000   
527.500000	0.489000   
528.000000	0.528000   
528.500000	0.622000   
529.000000	0.459000   
529.500000	0.498000   
530.000000	0.478000   
530.500000	0.544000   
531.000000	0.526000   
531.500000	0.454000   
532.000000	0.440000   
532.500000	0.392000   
533.000000	0.482000   
533.500000	0.530000   
534.000000	0.540000   
534.500000	0.391000   
535.000000	0.432000   
535.500000	0.620000   
536.000000	0.560000   
536.500000	0.434000   
537.000000	0.544000   
537.500000	0.453000   
538.000000	0.368000   
538.500000	0.455000   
539.000000	0.520000   
539.500000	0.614000   
540.000000	0.464000   
540.500000	0.587000   
541.000000	0.546000   
541.500000	0.552000   
542.000000	0.452000   
542.500000	0.428000   
543.000000	0.603000   
543.500000	0.439000   
544.000000	0.509000   
544.500000	0.525000   
545.000000	0.447000   
545.500000	0.484000   
546.000000	0.486000   
546.500000	0.377000   
547.000000	0.419000   
547.500000	0.484000   
548.000000	0.457000   
548.500000	0.378000   

