PE FL                   SPECTRUM    ASCII       PEDS        1.60        
  -1
0174FD~1.SP
19/01/24
10:21:51.00
19/01/24
10:21:51.00


548.500000
1









LS45
295.00
10.00
10.00
SCAN
1
16
100
100
0
600
0
1
0
1
7
ON
435 365 
0 0 0
#HDR
-1
-1
#GR
NM
INT 
0.00002384185791015625
0.0
230.000000
0.500000
638
8
438.543000
0.270000
#DATA
230.000000	0.385000   
230.500000	0.373000   
231.000000	0.434000   
231.500000	0.270000   
232.000000	0.376000   
232.500000	0.479000   
233.000000	0.360000   
233.500000	0.381000   
234.000000	0.299000   
234.500000	0.325000   
235.000000	0.295000   
235.500000	0.441000   
236.000000	0.446000   
236.500000	0.485000   
237.000000	0.415000   
237.500000	0.476000   
238.000000	0.349000   
238.500000	0.522000   
239.000000	0.414000   
239.500000	0.525000   
240.000000	0.510000   
240.500000	0.414000   
241.000000	0.460000   
241.500000	0.581000   
242.000000	0.329000   
242.500000	0.308000   
243.000000	0.478000   
243.500000	0.515000   
244.000000	0.577000   
244.500000	0.547000   
245.000000	0.457000   
245.500000	0.486000   
246.000000	0.590000   
246.500000	0.635000   
247.000000	0.522000   
247.500000	0.521000   
248.000000	0.434000   
248.500000	0.636000   
249.000000	0.608000   
249.500000	0.543000   
250.000000	0.554000   
250.500000	0.599000   
251.000000	0.603000   
251.500000	0.675000   
252.000000	0.612000   
252.500000	0.657000   
253.000000	0.589000   
253.500000	0.596000   
254.000000	0.586000   
254.500000	0.623000   
255.000000	0.504000   
255.500000	0.704000   
256.000000	0.854000   
256.500000	0.888000   
257.000000	0.756000   
257.500000	0.754000   
258.000000	0.775000   
258.500000	0.720000   
259.000000	0.768000   
259.500000	0.946000   
260.000000	1.191000   
260.500000	1.105000   
261.000000	0.975000   
261.500000	0.977000   
262.000000	1.200000   
262.500000	1.330000   
263.000000	1.220000   
263.500000	1.072000   
264.000000	1.110000   
264.500000	1.157000   
265.000000	1.123000   
265.500000	1.097000   
266.000000	1.161000   
266.500000	1.246000   
267.000000	1.195000   
267.500000	1.372000   
268.000000	1.467000   
268.500000	1.549000   
269.000000	1.958000   
269.500000	1.761000   
270.000000	1.688000   
270.500000	1.915000   
271.000000	1.748000   
271.500000	1.819000   
272.000000	2.208000   
272.500000	2.646000   
273.000000	3.062000   
273.500000	3.682000   
274.000000	4.501000   
274.500000	5.526000   
275.000000	6.999000   
275.500000	9.132999   
276.000000	11.867000  
276.500000	15.601000  
277.000000	18.640000  
277.500000	22.959000  
278.000000	29.069000  
278.500000	34.917000  
279.000000	40.771000  
279.500000	47.224000  
280.000000	59.098000  
280.500000	69.662000  
281.000000	82.548000  
281.500000	93.010000  
282.000000	108.089000 
282.500000	122.901000 
283.000000	138.118000 
283.500000	154.368000 
284.000000	170.694000 
284.500000	191.071000 
285.000000	211.022000 
285.500000	231.795000 
286.000000	246.731000 
286.500000	264.284000 
287.000000	283.716000 
287.500000	305.257000 
288.000000	327.338000 
288.500000	344.663000 
289.000000	361.635000 
289.500000	374.398000 
290.000000	387.271000 
290.500000	396.365000 
291.000000	411.136000 
291.500000	417.857000 
292.000000	426.040000 
292.500000	427.854000 
293.000000	433.083000 
293.500000	438.543000 
294.000000	430.310000 
294.500000	430.812000 
295.000000	425.109000 
295.500000	413.880000 
296.000000	399.614000 
296.500000	387.185000 
297.000000	381.431000 
297.500000	365.110000 
298.000000	347.850000 
298.500000	329.874000 
299.000000	309.437000 
299.500000	285.022000 
300.000000	269.468000 
300.500000	245.510000 
301.000000	223.421000 
301.500000	206.986000 
302.000000	190.844000 
302.500000	174.194000 
303.000000	150.410000 
303.500000	135.205000 
304.000000	116.702000 
304.500000	105.652000 
305.000000	93.054000  
305.500000	83.697000  
306.000000	69.143000  
306.500000	61.775000  
307.000000	50.048000  
307.500000	42.165000  
308.000000	38.065000  
308.500000	33.607000  
309.000000	29.266000  
309.500000	27.880000  
310.000000	28.202000  
310.500000	26.882000  
311.000000	27.369000  
311.500000	28.554000  
312.000000	29.873000  
312.500000	33.376000  
313.000000	34.267000  
313.500000	38.349000  
314.000000	41.983000  
314.500000	45.289000  
315.000000	49.347000  
315.500000	54.847000  
316.000000	58.258000  
316.500000	65.153000  
317.000000	68.113000  
317.500000	73.415000  
318.000000	78.069000  
318.500000	82.855000  
319.000000	87.531000  
319.500000	90.967000  
320.000000	96.900000  
320.500000	101.670000 
321.000000	107.877000 
321.500000	110.041000 
322.000000	111.797000 
322.500000	114.070000 
323.000000	119.823000 
323.500000	122.076000 
324.000000	124.157000 
324.500000	123.779000 
325.000000	124.659000 
325.500000	125.331000 
326.000000	126.165000 
326.500000	125.864000 
327.000000	122.932000 
327.500000	120.845000 
328.000000	118.679000 
328.500000	115.125000 
329.000000	111.010000 
329.500000	109.472000 
330.000000	103.851000 
330.500000	96.921000  
331.000000	95.322999  
331.500000	89.653000  
332.000000	84.199000  
332.500000	77.679000  
333.000000	72.482000  
333.500000	67.078000  
334.000000	64.269000  
334.500000	58.155000  
335.000000	53.235000  
335.500000	48.103000  
336.000000	44.395000  
336.500000	37.945000  
337.000000	35.020000  
337.500000	30.877000  
338.000000	27.401000  
338.500000	24.713000  
339.000000	22.117000  
339.500000	19.086000  
340.000000	16.646000  
340.500000	14.943000  
341.000000	13.275000  
341.500000	11.240000  
342.000000	9.718999   
342.500000	8.709000   
343.000000	8.093000   
343.500000	7.448000   
344.000000	6.406000   
344.500000	5.841000   
345.000000	5.623000   
345.500000	5.046000   
346.000000	5.016000   
346.500000	4.346000   
347.000000	4.156000   
347.500000	4.164000   
348.000000	3.819000   
348.500000	3.923000   
349.000000	3.915000   
349.500000	3.794000   
350.000000	3.614000   
350.500000	3.392000   
351.000000	3.318000   
351.500000	3.637000   
352.000000	3.152000   
352.500000	3.351000   
353.000000	3.184000   
353.500000	3.171000   
354.000000	3.284000   
354.500000	3.061000   
355.000000	3.165000   
355.500000	3.130000   
356.000000	3.141000   
356.500000	3.000000   
357.000000	3.137000   
357.500000	3.016000   
358.000000	3.582000   
358.500000	3.172000   
359.000000	3.053000   
359.500000	2.937000   
360.000000	2.973000   
360.500000	2.774000   
361.000000	3.085000   
361.500000	2.882000   
362.000000	2.673000   
362.500000	2.794000   
363.000000	3.247000   
363.500000	2.527000   
364.000000	2.751000   
364.500000	2.719000   
365.000000	2.638000   
365.500000	2.650000   
366.000000	2.342000   
366.500000	2.441000   
367.000000	2.141000   
367.500000	2.238000   
368.000000	2.611000   
368.500000	2.768000   
369.000000	2.667000   
369.500000	2.398000   
370.000000	2.240000   
370.500000	2.322000   
371.000000	2.180000   
371.500000	2.460000   
372.000000	2.369000   
372.500000	2.114000   
373.000000	2.169000   
373.500000	2.134000   
374.000000	2.254000   
374.500000	2.264000   
375.000000	2.327000   
375.500000	2.061000   
376.000000	2.028000   
376.500000	2.105000   
377.000000	2.268000   
377.500000	1.852000   
378.000000	2.200000   
378.500000	2.206000   
379.000000	1.830000   
379.500000	2.104000   
380.000000	1.880000   
380.500000	1.756000   
381.000000	1.860000   
381.500000	1.796000   
382.000000	2.036000   
382.500000	1.769000   
383.000000	1.802000   
383.500000	2.028000   
384.000000	2.036000   
384.500000	1.991000   
385.000000	1.640000   
385.500000	1.730000   
386.000000	1.785000   
386.500000	1.883000   
387.000000	2.026000   
387.500000	1.845000   
388.000000	1.716000   
388.500000	1.646000   
389.000000	1.689000   
389.500000	1.605000   
390.000000	1.653000   
390.500000	1.471000   
391.000000	1.690000   
391.500000	1.726000   
392.000000	1.547000   
392.500000	1.944000   
393.000000	1.818000   
393.500000	1.834000   
394.000000	1.857000   
394.500000	1.846000   
395.000000	1.690000   
395.500000	1.750000   
396.000000	1.504000   
396.500000	1.570000   
397.000000	1.822000   
397.500000	1.942000   
398.000000	1.674000   
398.500000	1.604000   
399.000000	1.603000   
399.500000	1.491000   
400.000000	1.606000   
400.500000	1.534000   
401.000000	1.590000   
401.500000	1.608000   
402.000000	1.631000   
402.500000	1.743000   
403.000000	1.849000   
403.500000	1.900000   
404.000000	2.084000   
404.500000	1.682000   
405.000000	1.884000   
405.500000	1.872000   
406.000000	1.555000   
406.500000	1.890000   
407.000000	1.775000   
407.500000	1.639000   
408.000000	1.586000   
408.500000	1.830000   
409.000000	1.793000   
409.500000	1.779000   
410.000000	1.865000   
410.500000	1.681000   
411.000000	1.746000   
411.500000	1.625000   
412.000000	1.521000   
412.500000	1.569000   
413.000000	1.519000   
413.500000	1.551000   
414.000000	1.516000   
414.500000	1.563000   
415.000000	1.642000   
415.500000	1.878000   
416.000000	1.515000   
416.500000	1.528000   
417.000000	1.698000   
417.500000	1.608000   
418.000000	1.657000   
418.500000	1.795000   
419.000000	1.942000   
419.500000	1.754000   
420.000000	1.470000   
420.500000	1.568000   
421.000000	1.648000   
421.500000	1.658000   
422.000000	1.569000   
422.500000	1.673000   
423.000000	1.636000   
423.500000	1.695000   
424.000000	1.644000   
424.500000	1.672000   
425.000000	1.654000   
425.500000	1.503000   
426.000000	1.528000   
426.500000	1.784000   
427.000000	1.675000   
427.500000	1.778000   
428.000000	1.858000   
428.500000	1.493000   
429.000000	1.458000   
429.500000	1.300000   
430.000000	1.753000   
430.500000	1.690000   
431.000000	1.401000   
431.500000	1.230000   
432.000000	1.380000   
432.500000	1.414000   
433.000000	1.530000   
433.500000	1.357000   
434.000000	1.262000   
434.500000	1.518000   
435.000000	1.481000   
435.500000	1.574000   
436.000000	1.683000   
436.500000	1.452000   
437.000000	1.706000   
437.500000	1.390000   
438.000000	1.438000   
438.500000	1.367000   
439.000000	1.299000   
439.500000	1.439000   
440.000000	1.561000   
440.500000	1.497000   
441.000000	1.514000   
441.500000	1.603000   
442.000000	1.792000   
442.500000	1.420000   
443.000000	1.297000   
443.500000	1.491000   
444.000000	1.669000   
444.500000	1.327000   
445.000000	1.367000   
445.500000	1.487000   
446.000000	1.274000   
446.500000	1.340000   
447.000000	1.502000   
447.500000	1.596000   
448.000000	1.385000   
448.500000	1.518000   
449.000000	1.385000   
449.500000	1.684000   
450.000000	1.694000   
450.500000	1.447000   
451.000000	1.667000   
451.500000	1.561000   
452.000000	1.839000   
452.500000	1.800000   
453.000000	1.609000   
453.500000	1.642000   
454.000000	1.679000   
454.500000	1.785000   
455.000000	1.685000   
455.500000	1.861000   
456.000000	1.590000   
456.500000	1.795000   
457.000000	1.820000   
457.500000	1.571000   
458.000000	1.640000   
458.500000	1.503000   
459.000000	1.545000   
459.500000	1.517000   
460.000000	1.639000   
460.500000	1.694000   
461.000000	1.546000   
461.500000	1.403000   
462.000000	1.833000   
462.500000	1.605000   
463.000000	1.377000   
463.500000	1.418000   
464.000000	1.706000   
464.500000	1.758000   
465.000000	1.727000   
465.500000	1.436000   
466.000000	1.503000   
466.500000	1.555000   
467.000000	1.375000   
467.500000	1.760000   
468.000000	1.805000   
468.500000	1.668000   
469.000000	1.410000   
469.500000	1.326000   
470.000000	1.445000   
470.500000	1.258000   
471.000000	1.395000   
471.500000	1.723000   
472.000000	1.351000   
472.500000	1.524000   
473.000000	1.512000   
473.500000	1.327000   
474.000000	1.516000   
474.500000	1.374000   
475.000000	1.586000   
475.500000	1.218000   
476.000000	1.307000   
476.500000	1.446000   
477.000000	1.421000   
477.500000	1.214000   
478.000000	1.471000   
478.500000	1.363000   
479.000000	1.469000   
479.500000	1.190000   
480.000000	1.299000   
480.500000	1.378000   
481.000000	1.470000   
481.500000	1.314000   
482.000000	1.343000   
482.500000	1.355000   
483.000000	1.501000   
483.500000	1.563000   
484.000000	1.370000   
484.500000	1.775000   
485.000000	1.498000   
485.500000	1.802000   
486.000000	1.664000   
486.500000	1.558000   
487.000000	1.584000   
487.500000	1.503000   
488.000000	1.487000   
488.500000	1.491000   
489.000000	1.462000   
489.500000	1.551000   
490.000000	1.690000   
490.500000	1.599000   
491.000000	1.618000   
491.500000	1.622000   
492.000000	1.611000   
492.500000	1.549000   
493.000000	1.876000   
493.500000	1.539000   
494.000000	1.474000   
494.500000	1.385000   
495.000000	1.786000   
495.500000	1.749000   
496.000000	1.713000   
496.500000	1.532000   
497.000000	1.698000   
497.500000	1.582000   
498.000000	1.610000   
498.500000	1.557000   
499.000000	1.523000   
499.500000	1.462000   
500.000000	1.541000   
500.500000	1.449000   
501.000000	1.333000   
501.500000	1.511000   
502.000000	1.367000   
502.500000	1.339000   
503.000000	1.553000   
503.500000	1.234000   
504.000000	1.441000   
504.500000	1.386000   
505.000000	1.393000   
505.500000	1.284000   
506.000000	1.507000   
506.500000	1.515000   
507.000000	1.157000   
507.500000	1.063000   
508.000000	1.251000   
508.500000	1.420000   
509.000000	1.444000   
509.500000	1.251000   
510.000000	1.366000   
510.500000	1.125000   
511.000000	1.737000   
511.500000	1.416000   
512.000000	1.352000   
512.500000	1.704000   
513.000000	1.645000   
513.500000	1.535000   
514.000000	1.570000   
514.500000	1.642000   
515.000000	1.583000   
515.500000	1.493000   
516.000000	1.756000   
516.500000	1.605000   
517.000000	1.772000   
517.500000	1.921000   
518.000000	1.994000   
518.500000	1.683000   
519.000000	1.621000   
519.500000	1.640000   
520.000000	1.918000   
520.500000	1.841000   
521.000000	1.810000   
521.500000	1.741000   
522.000000	1.719000   
522.500000	1.814000   
523.000000	1.877000   
523.500000	1.719000   
524.000000	1.935000   
524.500000	1.631000   
525.000000	1.806000   
525.500000	1.740000   
526.000000	1.677000   
526.500000	1.828000   
527.000000	2.241000   
527.500000	1.874000   
528.000000	2.038000   
528.500000	1.908000   
529.000000	1.559000   
529.500000	1.617000   
530.000000	1.834000   
530.500000	1.831000   
531.000000	1.800000   
531.500000	1.797000   
532.000000	1.833000   
532.500000	1.836000   
533.000000	1.709000   
533.500000	1.673000   
534.000000	1.692000   
534.500000	1.953000   
535.000000	2.098000   
535.500000	2.202000   
536.000000	1.963000   
536.500000	2.007000   
537.000000	2.167000   
537.500000	2.019000   
538.000000	1.900000   
538.500000	1.786000   
539.000000	2.044000   
539.500000	2.180000   
540.000000	2.097000   
540.500000	2.049000   
541.000000	2.211000   
541.500000	2.247000   
542.000000	2.025000   
542.500000	2.173000   
543.000000	2.299000   
543.500000	2.305000   
544.000000	2.392000   
544.500000	2.366000   
545.000000	2.124000   
545.500000	2.321000   
546.000000	2.106000   
546.500000	2.201000   
547.000000	2.052000   
547.500000	2.068000   
548.000000	2.230000   
548.500000	2.545000   

