PE FL                   SPECTRUM    ASCII       PEDS        1.60        
  -1
014DF6~1.SP
19/01/24
13:15:26.00
19/01/24
13:15:26.00


548.500000
1









LS45
355.00
10.00
10.00
SCAN
1
16
100
100
0
600
0
1
0
1
7
ON
550 545 
0 0 0
#HDR
-1
-1
#GR
NM
INT 
0.00002384185791015625
0.0
230.000000
0.500000
638
8
999.999000
0.411000
#DATA
230.000000	0.478000   
230.500000	0.551000   
231.000000	0.516000   
231.500000	0.573000   
232.000000	0.654000   
232.500000	0.578000   
233.000000	0.645000   
233.500000	0.479000   
234.000000	0.545000   
234.500000	0.617000   
235.000000	0.547000   
235.500000	0.411000   
236.000000	0.578000   
236.500000	0.511000   
237.000000	0.443000   
237.500000	0.513000   
238.000000	0.578000   
238.500000	0.430000   
239.000000	0.441000   
239.500000	0.497000   
240.000000	0.473000   
240.500000	0.472000   
241.000000	0.648000   
241.500000	0.633000   
242.000000	0.624000   
242.500000	0.627000   
243.000000	0.576000   
243.500000	0.582000   
244.000000	0.541000   
244.500000	0.564999   
245.000000	0.539000   
245.500000	0.503000   
246.000000	0.431000   
246.500000	0.476000   
247.000000	0.600000   
247.500000	0.467000   
248.000000	0.655000   
248.500000	0.575000   
249.000000	0.563999   
249.500000	0.518000   
250.000000	0.569000   
250.500000	0.579000   
251.000000	0.570000   
251.500000	0.676000   
252.000000	0.629000   
252.500000	0.506000   
253.000000	0.612000   
253.500000	0.731000   
254.000000	0.610000   
254.500000	0.678000   
255.000000	0.706000   
255.500000	0.726000   
256.000000	0.691999   
256.500000	0.562999   
257.000000	0.600000   
257.500000	0.649000   
258.000000	0.641000   
258.500000	0.610000   
259.000000	0.690999   
259.500000	0.668000   
260.000000	0.637000   
260.500000	0.642000   
261.000000	0.754000   
261.500000	0.705000   
262.000000	0.739000   
262.500000	0.694000   
263.000000	0.688999   
263.500000	0.746000   
264.000000	0.677000   
264.500000	0.808000   
265.000000	0.811000   
265.500000	0.736000   
266.000000	0.856000   
266.500000	0.852000   
267.000000	0.765000   
267.500000	0.756000   
268.000000	0.784000   
268.500000	0.821000   
269.000000	0.806000   
269.500000	0.886000   
270.000000	0.700000   
270.500000	0.621000   
271.000000	0.775000   
271.500000	0.931000   
272.000000	0.785000   
272.500000	0.827000   
273.000000	1.012000   
273.500000	0.979000   
274.000000	0.877000   
274.500000	0.799000   
275.000000	0.771000   
275.500000	0.834000   
276.000000	1.022000   
276.500000	0.982000   
277.000000	0.933000   
277.500000	0.966000   
278.000000	0.967000   
278.500000	1.011000   
279.000000	1.014000   
279.500000	0.993000   
280.000000	0.953000   
280.500000	0.956000   
281.000000	0.970000   
281.500000	1.126000   
282.000000	1.099000   
282.500000	0.914000   
283.000000	0.994000   
283.500000	1.167000   
284.000000	1.059000   
284.500000	1.226000   
285.000000	1.033000   
285.500000	1.133000   
286.000000	1.140000   
286.500000	1.051000   
287.000000	1.147000   
287.500000	1.052000   
288.000000	1.303000   
288.500000	1.165000   
289.000000	1.302000   
289.500000	1.082000   
290.000000	1.135000   
290.500000	1.303000   
291.000000	1.297000   
291.500000	1.200000   
292.000000	1.112000   
292.500000	1.225000   
293.000000	1.238000   
293.500000	1.027000   
294.000000	1.282000   
294.500000	1.178000   
295.000000	1.326000   
295.500000	1.372000   
296.000000	1.339000   
296.500000	1.301000   
297.000000	1.387000   
297.500000	1.404000   
298.000000	1.382000   
298.500000	1.581000   
299.000000	1.733000   
299.500000	1.713000   
300.000000	1.464000   
300.500000	1.680000   
301.000000	1.776000   
301.500000	1.440000   
302.000000	1.690000   
302.500000	1.765000   
303.000000	1.656000   
303.500000	1.766000   
304.000000	1.943000   
304.500000	1.876000   
305.000000	2.005000   
305.500000	1.993000   
306.000000	1.825000   
306.500000	2.199000   
307.000000	2.244000   
307.500000	2.419000   
308.000000	2.309000   
308.500000	2.155000   
309.000000	2.425000   
309.500000	2.309000   
310.000000	2.470000   
310.500000	2.493000   
311.000000	2.614000   
311.500000	2.752000   
312.000000	2.726000   
312.500000	2.732000   
313.000000	2.767000   
313.500000	3.046000   
314.000000	2.999000   
314.500000	3.015000   
315.000000	3.699000   
315.500000	3.883000   
316.000000	3.570000   
316.500000	4.119000   
317.000000	3.915000   
317.500000	3.954000   
318.000000	4.111000   
318.500000	4.175000   
319.000000	4.310000   
319.500000	4.160000   
320.000000	4.646000   
320.500000	4.573000   
321.000000	4.703000   
321.500000	4.887000   
322.000000	5.281000   
322.500000	5.369000   
323.000000	5.482000   
323.500000	5.692000   
324.000000	5.830000   
324.500000	6.078000   
325.000000	5.954000   
325.500000	6.356000   
326.000000	6.578000   
326.500000	6.794000   
327.000000	7.198000   
327.500000	7.376000   
328.000000	7.511000   
328.500000	7.745000   
329.000000	8.326000   
329.500000	8.698000   
330.000000	8.856000   
330.500000	9.740000   
331.000000	10.494000  
331.500000	11.626000  
332.000000	13.345000  
332.500000	16.480000  
333.000000	20.895000  
333.500000	25.244000  
334.000000	31.881000  
334.500000	38.472000  
335.000000	50.276000  
335.500000	64.822000  
336.000000	79.117999  
336.500000	102.106000 
337.000000	125.217000 
337.500000	163.476000 
338.000000	194.518000 
338.500000	236.840000 
339.000000	277.929000 
339.500000	332.305000 
340.000000	383.715000 
340.500000	443.388000 
341.000000	562.706000 
341.500000	642.463000 
342.000000	655.223000 
342.500000	789.163000 
343.000000	859.028000 
343.500000	948.867000 
344.000000	961.468000 
344.500000	999.999000 
345.000000	999.999000 
345.500000	999.999000 
346.000000	999.999000 
346.500000	999.999000 
347.000000	999.999000 
347.500000	999.999000 
348.000000	999.999000 
348.500000	999.999000 
349.000000	999.999000 
349.500000	999.999000 
350.000000	999.999000 
350.500000	999.999000 
351.000000	999.999000 
351.500000	999.999000 
352.000000	999.999000 
352.500000	999.999000 
353.000000	999.999000 
353.500000	999.999000 
354.000000	999.999000 
354.500000	999.999000 
355.000000	999.999000 
355.500000	999.999000 
356.000000	999.999000 
356.500000	999.999000 
357.000000	999.999000 
357.500000	999.999000 
358.000000	999.999000 
358.500000	983.133000 
359.000000	889.996000 
359.500000	878.070000 
360.000000	744.667000 
360.500000	732.255000 
361.000000	596.333000 
361.500000	584.417000 
362.000000	447.027000 
362.500000	438.027000 
363.000000	389.156000 
363.500000	329.759000 
364.000000	288.105000 
364.500000	239.266000 
365.000000	199.938000 
365.500000	166.112000 
366.000000	138.613000 
366.500000	113.007000 
367.000000	91.272000  
367.500000	76.346000  
368.000000	60.576000  
368.500000	49.678000  
369.000000	40.221000  
369.500000	36.418000  
370.000000	30.881000  
370.500000	27.672000  
371.000000	26.059000  
371.500000	25.455000  
372.000000	23.708000  
372.500000	23.221000  
373.000000	22.986000  
373.500000	23.305000  
374.000000	24.397000  
374.500000	23.136000  
375.000000	23.636000  
375.500000	24.254000  
376.000000	24.499000  
376.500000	23.876000  
377.000000	24.346000  
377.500000	25.632000  
378.000000	25.080000  
378.500000	25.461000  
379.000000	26.813000  
379.500000	27.331000  
380.000000	28.200000  
380.500000	28.797000  
381.000000	29.156000  
381.500000	29.795000  
382.000000	31.255000  
382.500000	32.026000  
383.000000	32.288000  
383.500000	33.470000  
384.000000	35.145000  
384.500000	36.969000  
385.000000	38.156000  
385.500000	39.980000  
386.000000	41.513000  
386.500000	42.344000  
387.000000	44.388000  
387.500000	47.048000  
388.000000	49.026000  
388.500000	51.038000  
389.000000	53.793000  
389.500000	55.271000  
390.000000	57.147000  
390.500000	60.725000  
391.000000	63.687000  
391.500000	64.532000  
392.000000	67.413000  
392.500000	71.346999  
393.000000	72.693000  
393.500000	75.546000  
394.000000	77.310000  
394.500000	80.807000  
395.000000	83.565000  
395.500000	87.934000  
396.000000	88.952000  
396.500000	89.194000  
397.000000	92.943000  
397.500000	93.715999  
398.000000	96.160000  
398.500000	97.497000  
399.000000	97.462999  
399.500000	98.804000  
400.000000	100.295000 
400.500000	100.133000 
401.000000	100.743000 
401.500000	101.163000 
402.000000	98.587999  
402.500000	100.181000 
403.000000	100.296000 
403.500000	98.098000  
404.000000	98.075999  
404.500000	97.933000  
405.000000	96.727999  
405.500000	96.786000  
406.000000	94.270000  
406.500000	93.697000  
407.000000	92.045000  
407.500000	91.092000  
408.000000	88.979000  
408.500000	87.930000  
409.000000	85.995000  
409.500000	83.511000  
410.000000	82.546000  
410.500000	82.627000  
411.000000	79.604000  
411.500000	79.686000  
412.000000	77.416000  
412.500000	74.652000  
413.000000	76.060000  
413.500000	76.096000  
414.000000	74.676000  
414.500000	73.646000  
415.000000	73.000000  
415.500000	72.563999  
416.000000	71.961000  
416.500000	69.964000  
417.000000	70.816999  
417.500000	71.044000  
418.000000	71.413000  
418.500000	72.205000  
419.000000	71.613000  
419.500000	71.691000  
420.000000	71.025000  
420.500000	71.453000  
421.000000	71.456999  
421.500000	71.039000  
422.000000	71.525000  
422.500000	71.203999  
423.000000	72.554000  
423.500000	71.943000  
424.000000	71.903000  
424.500000	72.649000  
425.000000	73.861999  
425.500000	74.084000  
426.000000	74.031000  
426.500000	74.375000  
427.000000	76.081999  
427.500000	75.006000  
428.000000	75.949000  
428.500000	76.543000  
429.000000	76.590000  
429.500000	77.614999  
430.000000	77.696000  
430.500000	76.658000  
431.000000	77.941999  
431.500000	77.011000  
432.000000	76.944000  
432.500000	78.010000  
433.000000	77.010000  
433.500000	77.745000  
434.000000	79.593999  
434.500000	78.980000  
435.000000	78.361000  
435.500000	79.101000  
436.000000	79.914000  
436.500000	79.425000  
437.000000	80.543000  
437.500000	80.505000  
438.000000	80.846000  
438.500000	79.947999  
439.000000	80.992999  
439.500000	80.229000  
440.000000	81.200999  
440.500000	80.334999  
441.000000	79.349999  
441.500000	78.516000  
442.000000	79.197000  
442.500000	79.906000  
443.000000	80.382000  
443.500000	77.996000  
444.000000	81.339000  
444.500000	80.878000  
445.000000	80.260000  
445.500000	79.762000  
446.000000	79.367000  
446.500000	79.863000  
447.000000	80.075000  
447.500000	79.321000  
448.000000	77.813999  
448.500000	78.130000  
449.000000	78.060000  
449.500000	77.349000  
450.000000	76.885000  
450.500000	76.155000  
451.000000	77.187000  
451.500000	76.049000  
452.000000	76.255000  
452.500000	76.087000  
453.000000	77.117999  
453.500000	74.536000  
454.000000	75.011000  
454.500000	75.168000  
455.000000	72.933000  
455.500000	72.229000  
456.000000	72.129000  
456.500000	71.651000  
457.000000	71.821000  
457.500000	71.649000  
458.000000	71.008000  
458.500000	71.096999  
459.000000	70.755000  
459.500000	69.648000  
460.000000	69.181000  
460.500000	69.554000  
461.000000	69.161000  
461.500000	66.908000  
462.000000	66.608000  
462.500000	68.819999  
463.000000	67.167000  
463.500000	65.394000  
464.000000	65.382000  
464.500000	64.521000  
465.000000	65.293000  
465.500000	64.279000  
466.000000	64.857000  
466.500000	64.894000  
467.000000	63.040000  
467.500000	61.719000  
468.000000	61.345000  
468.500000	61.407000  
469.000000	61.469000  
469.500000	59.224000  
470.000000	60.734000  
470.500000	59.952000  
471.000000	57.999000  
471.500000	58.468000  
472.000000	58.679000  
472.500000	58.659000  
473.000000	58.742000  
473.500000	59.022000  
474.000000	57.259000  
474.500000	57.344000  
475.000000	56.712000  
475.500000	56.500000  
476.000000	55.543000  
476.500000	54.703000  
477.000000	55.874000  
477.500000	54.206000  
478.000000	53.919000  
478.500000	53.708000  
479.000000	54.925000  
479.500000	53.162000  
480.000000	52.862000  
480.500000	52.152000  
481.000000	53.116000  
481.500000	52.133000  
482.000000	50.995000  
482.500000	51.315000  
483.000000	50.661000  
483.500000	49.983000  
484.000000	50.976000  
484.500000	49.846000  
485.000000	48.388000  
485.500000	47.991000  
486.000000	48.308000  
486.500000	47.925000  
487.000000	48.683000  
487.500000	47.969000  
488.000000	47.178000  
488.500000	46.424000  
489.000000	47.213000  
489.500000	45.382000  
490.000000	46.018000  
490.500000	45.023000  
491.000000	44.477000  
491.500000	44.647000  
492.000000	44.173000  
492.500000	44.406000  
493.000000	43.678000  
493.500000	42.530000  
494.000000	42.249000  
494.500000	40.896000  
495.000000	41.044000  
495.500000	41.077000  
496.000000	40.449000  
496.500000	40.012000  
497.000000	39.569000  
497.500000	38.572000  
498.000000	38.707000  
498.500000	38.315000  
499.000000	38.479000  
499.500000	37.361000  
500.000000	36.662000  
500.500000	37.555000  
501.000000	37.940000  
501.500000	37.341000  
502.000000	36.903000  
502.500000	36.749000  
503.000000	35.881000  
503.500000	34.967000  
504.000000	34.723000  
504.500000	33.994000  
505.000000	34.230000  
505.500000	34.326000  
506.000000	34.248000  
506.500000	33.404000  
507.000000	32.414000  
507.500000	32.238000  
508.000000	31.956000  
508.500000	31.654000  
509.000000	31.533000  
509.500000	30.916000  
510.000000	30.455000  
510.500000	30.410000  
511.000000	29.848000  
511.500000	30.357000  
512.000000	29.475000  
512.500000	29.344000  
513.000000	29.678000  
513.500000	28.582000  
514.000000	29.069000  
514.500000	28.139000  
515.000000	27.484000  
515.500000	27.776000  
516.000000	28.307000  
516.500000	27.662000  
517.000000	26.808000  
517.500000	27.082000  
518.000000	26.607000  
518.500000	26.040000  
519.000000	25.985000  
519.500000	25.480000  
520.000000	25.760000  
520.500000	26.145000  
521.000000	25.637000  
521.500000	25.681000  
522.000000	24.175000  
522.500000	23.919000  
523.000000	24.230000  
523.500000	23.682000  
524.000000	23.756000  
524.500000	23.249000  
525.000000	22.970000  
525.500000	23.209000  
526.000000	22.239000  
526.500000	21.741000  
527.000000	21.274000  
527.500000	20.734000  
528.000000	21.351000  
528.500000	20.917000  
529.000000	20.206000  
529.500000	19.884000  
530.000000	19.823000  
530.500000	19.807000  
531.000000	19.661000  
531.500000	18.833000  
532.000000	18.791000  
532.500000	18.685000  
533.000000	18.390000  
533.500000	18.078000  
534.000000	17.857000  
534.500000	17.752000  
535.000000	17.522000  
535.500000	17.009000  
536.000000	16.092000  
536.500000	16.805000  
537.000000	16.853000  
537.500000	16.302000  
538.000000	16.154000  
538.500000	15.590000  
539.000000	15.854000  
539.500000	15.264000  
540.000000	14.723000  
540.500000	15.185000  
541.000000	14.766000  
541.500000	14.465000  
542.000000	14.115000  
542.500000	14.478000  
543.000000	13.721000  
543.500000	14.037000  
544.000000	14.100000  
544.500000	13.437000  
545.000000	13.998000  
545.500000	13.273000  
546.000000	12.414000  
546.500000	12.690000  
547.000000	13.241000  
547.500000	12.845000  
548.000000	12.326000  
548.500000	12.225000  

