PE FL                   SPECTRUM    ASCII       PEDS        1.60        
  -1
0139FE~1.SP
19/01/24
13:03:22.00
19/01/24
13:03:22.00


548.500000
1









LS45
275.00
10.00
10.00
SCAN
1
16
100
100
0
600
0
1
0
1
7
ON
550 545 
0 0 0
#HDR
-1
-1
#GR
NM
INT 
0.00002384185791015625
0.0
230.000000
0.500000
638
8
999.999000
1.339000
#DATA
230.000000	1.660000   
230.500000	1.613000   
231.000000	1.527000   
231.500000	1.560000   
232.000000	1.585000   
232.500000	1.395000   
233.000000	1.339000   
233.500000	1.657000   
234.000000	1.469000   
234.500000	1.463000   
235.000000	1.624000   
235.500000	1.651000   
236.000000	1.597000   
236.500000	1.430000   
237.000000	1.476000   
237.500000	1.473000   
238.000000	1.638000   
238.500000	1.584000   
239.000000	1.839000   
239.500000	1.752000   
240.000000	1.795000   
240.500000	1.850000   
241.000000	1.822000   
241.500000	2.010000   
242.000000	1.799000   
242.500000	1.819000   
243.000000	1.900000   
243.500000	2.159000   
244.000000	2.181000   
244.500000	2.037000   
245.000000	2.153000   
245.500000	2.343000   
246.000000	2.607000   
246.500000	2.591000   
247.000000	2.582000   
247.500000	2.737000   
248.000000	2.663000   
248.500000	2.624000   
249.000000	2.671000   
249.500000	2.695000   
250.000000	3.106000   
250.500000	3.294000   
251.000000	3.760000   
251.500000	3.710000   
252.000000	4.110000   
252.500000	4.204000   
253.000000	4.609000   
253.500000	5.835000   
254.000000	6.509000   
254.500000	7.976000   
255.000000	10.183000  
255.500000	12.341000  
256.000000	16.211000  
256.500000	20.305000  
257.000000	26.549000  
257.500000	32.387000  
258.000000	41.247000  
258.500000	52.131000  
259.000000	64.247000  
259.500000	78.089000  
260.000000	90.997000  
260.500000	113.296000 
261.000000	131.901000 
261.500000	156.592000 
262.000000	178.433000 
262.500000	210.149000 
263.000000	231.288000 
263.500000	259.929000 
264.000000	298.759000 
264.500000	330.380000 
265.000000	365.951000 
265.500000	407.055000 
266.000000	445.543000 
266.500000	483.885000 
267.000000	521.655000 
267.500000	552.905999 
268.000000	594.759000 
268.500000	624.676000 
269.000000	661.725000 
269.500000	687.796000 
270.000000	715.373000 
270.500000	743.095000 
271.000000	761.631000 
271.500000	782.583999 
272.000000	800.513000 
272.500000	810.103000 
273.000000	813.458999 
273.500000	816.876000 
274.000000	815.664000 
274.500000	803.434000 
275.000000	797.419000 
275.500000	785.651000 
276.000000	760.748000 
276.500000	740.475000 
277.000000	711.267000 
277.500000	680.179000 
278.000000	640.579000 
278.500000	612.453000 
279.000000	576.912000 
279.500000	541.652000 
280.000000	497.729000 
280.500000	460.903000 
281.000000	421.942000 
281.500000	383.277000 
282.000000	344.418000 
282.500000	310.623000 
283.000000	280.488000 
283.500000	246.418000 
284.000000	222.484000 
284.500000	196.312000 
285.000000	176.686000 
285.500000	151.420000 
286.000000	137.560000 
286.500000	121.744000 
287.000000	109.907000 
287.500000	97.685000  
288.000000	86.440000  
288.500000	81.489000  
289.000000	76.045000  
289.500000	71.958000  
290.000000	69.544000  
290.500000	68.013000  
291.000000	68.176000  
291.500000	69.624000  
292.000000	74.101000  
292.500000	75.438999  
293.000000	80.374000  
293.500000	82.973000  
294.000000	88.261000  
294.500000	90.974999  
295.000000	95.261000  
295.500000	98.138000  
296.000000	101.998000 
296.500000	109.958000 
297.000000	112.127000 
297.500000	117.403000 
298.000000	121.588000 
298.500000	124.689000 
299.000000	126.922000 
299.500000	129.126000 
300.000000	132.229000 
300.500000	136.027000 
301.000000	137.303000 
301.500000	136.141000 
302.000000	139.560000 
302.500000	139.812000 
303.000000	141.027000 
303.500000	142.655000 
304.000000	140.571000 
304.500000	138.996000 
305.000000	137.928000 
305.500000	135.297000 
306.000000	135.986000 
306.500000	134.749000 
307.000000	129.680000 
307.500000	128.811000 
308.000000	124.150000 
308.500000	122.503000 
309.000000	122.324000 
309.500000	119.296000 
310.000000	117.240000 
310.500000	113.986000 
311.000000	111.829000 
311.500000	110.371000 
312.000000	109.108000 
312.500000	104.726000 
313.000000	103.819000 
313.500000	102.451000 
314.000000	102.716000 
314.500000	100.494000 
315.000000	99.412000  
315.500000	99.659000  
316.000000	97.874000  
316.500000	99.474000  
317.000000	98.489999  
317.500000	98.799000  
318.000000	100.731000 
318.500000	100.735000 
319.000000	102.362000 
319.500000	101.875000 
320.000000	104.124000 
320.500000	102.348000 
321.000000	106.301000 
321.500000	109.974000 
322.000000	109.259000 
322.500000	110.434000 
323.000000	112.692000 
323.500000	117.105000 
324.000000	118.182000 
324.500000	122.204000 
325.000000	124.518000 
325.500000	124.799000 
326.000000	127.399000 
326.500000	129.614000 
327.000000	136.067000 
327.500000	134.274000 
328.000000	139.188000 
328.500000	140.099000 
329.000000	141.587000 
329.500000	143.099000 
330.000000	145.916000 
330.500000	149.504000 
331.000000	150.694000 
331.500000	153.276000 
332.000000	156.203000 
332.500000	157.472000 
333.000000	157.900000 
333.500000	159.860000 
334.000000	164.151000 
334.500000	162.429000 
335.000000	164.975000 
335.500000	166.733000 
336.000000	170.258000 
336.500000	173.688000 
337.000000	173.389000 
337.500000	176.341000 
338.000000	178.596000 
338.500000	179.450000 
339.000000	178.941000 
339.500000	177.769000 
340.000000	181.573000 
340.500000	181.170000 
341.000000	185.018000 
341.500000	184.803000 
342.000000	187.946000 
342.500000	191.477000 
343.000000	192.033000 
343.500000	190.022000 
344.000000	190.070000 
344.500000	190.587000 
345.000000	193.154000 
345.500000	194.168000 
346.000000	196.242000 
346.500000	199.392000 
347.000000	197.136000 
347.500000	201.026000 
348.000000	200.842000 
348.500000	198.955000 
349.000000	200.704000 
349.500000	201.811000 
350.000000	203.815000 
350.500000	203.131000 
351.000000	203.414000 
351.500000	204.348000 
352.000000	206.268000 
352.500000	205.006000 
353.000000	205.575000 
353.500000	205.771000 
354.000000	205.019000 
354.500000	201.758000 
355.000000	204.697000 
355.500000	201.388000 
356.000000	199.594000 
356.500000	200.740000 
357.000000	198.541000 
357.500000	202.205000 
358.000000	203.043000 
358.500000	198.102000 
359.000000	197.027000 
359.500000	197.649000 
360.000000	196.574000 
360.500000	197.768000 
361.000000	197.176000 
361.500000	191.905000 
362.000000	193.965000 
362.500000	191.448000 
363.000000	190.438000 
363.500000	192.571000 
364.000000	189.035000 
364.500000	191.523000 
365.000000	189.564000 
365.500000	186.475000 
366.000000	185.438000 
366.500000	183.037000 
367.000000	182.650000 
367.500000	182.871000 
368.000000	181.405000 
368.500000	182.164000 
369.000000	179.918000 
369.500000	178.369000 
370.000000	180.314000 
370.500000	177.437000 
371.000000	174.618000 
371.500000	173.166000 
372.000000	176.681000 
372.500000	176.098000 
373.000000	172.669000 
373.500000	173.045000 
374.000000	172.241000 
374.500000	169.164000 
375.000000	168.969000 
375.500000	169.497000 
376.000000	165.081000 
376.500000	165.040000 
377.000000	162.991000 
377.500000	162.568000 
378.000000	162.186000 
378.500000	160.113000 
379.000000	162.300000 
379.500000	159.822000 
380.000000	156.545000 
380.500000	157.275000 
381.000000	155.054000 
381.500000	152.455000 
382.000000	150.481000 
382.500000	150.504000 
383.000000	151.393000 
383.500000	150.110000 
384.000000	149.894000 
384.500000	147.371000 
385.000000	145.644000 
385.500000	144.069000 
386.000000	143.711000 
386.500000	142.742000 
387.000000	143.272000 
387.500000	142.024000 
388.000000	138.121000 
388.500000	136.298000 
389.000000	134.731000 
389.500000	135.977000 
390.000000	134.504000 
390.500000	131.118000 
391.000000	133.047000 
391.500000	131.317000 
392.000000	129.131000 
392.500000	126.873000 
393.000000	126.308000 
393.500000	124.459000 
394.000000	125.485000 
394.500000	123.344000 
395.000000	120.797000 
395.500000	119.070000 
396.000000	120.358000 
396.500000	119.579000 
397.000000	118.076000 
397.500000	118.562000 
398.000000	117.595000 
398.500000	117.443000 
399.000000	117.046000 
399.500000	116.354000 
400.000000	115.179000 
400.500000	111.977000 
401.000000	113.117000 
401.500000	110.521000 
402.000000	110.254000 
402.500000	109.594000 
403.000000	110.519000 
403.500000	108.935000 
404.000000	109.104000 
404.500000	110.624000 
405.000000	109.846000 
405.500000	106.640000 
406.000000	107.938000 
406.500000	107.666000 
407.000000	106.581000 
407.500000	103.934000 
408.000000	105.643000 
408.500000	107.646000 
409.000000	105.347000 
409.500000	103.291000 
410.000000	102.474000 
410.500000	101.481000 
411.000000	99.770000  
411.500000	102.009000 
412.000000	100.761000 
412.500000	101.673000 
413.000000	97.706000  
413.500000	98.983999  
414.000000	98.708000  
414.500000	96.897000  
415.000000	98.080000  
415.500000	96.925000  
416.000000	97.995000  
416.500000	96.274000  
417.000000	96.130000  
417.500000	95.059000  
418.000000	94.694000  
418.500000	92.968999  
419.000000	91.827000  
419.500000	92.130000  
420.000000	90.523000  
420.500000	90.523000  
421.000000	90.089000  
421.500000	88.875000  
422.000000	89.884000  
422.500000	89.733999  
423.000000	90.531000  
423.500000	90.915000  
424.000000	88.827000  
424.500000	87.676000  
425.000000	89.370000  
425.500000	88.671000  
426.000000	87.840999  
426.500000	87.535000  
427.000000	85.785000  
427.500000	86.124000  
428.000000	85.662000  
428.500000	88.001000  
429.000000	86.992999  
429.500000	85.789000  
430.000000	87.742000  
430.500000	87.081999  
431.000000	84.352999  
431.500000	83.331999  
432.000000	86.533000  
432.500000	85.884000  
433.000000	86.959000  
433.500000	85.821000  
434.000000	87.434000  
434.500000	85.627000  
435.000000	87.938999  
435.500000	86.090999  
436.000000	85.762000  
436.500000	86.176000  
437.000000	83.857000  
437.500000	86.446000  
438.000000	87.215000  
438.500000	86.462000  
439.000000	86.017000  
439.500000	86.300000  
440.000000	86.256000  
440.500000	86.910000  
441.000000	85.498000  
441.500000	84.935000  
442.000000	86.861999  
442.500000	84.175000  
443.000000	84.891000  
443.500000	85.427000  
444.000000	83.785000  
444.500000	84.837999  
445.000000	82.886000  
445.500000	85.131000  
446.000000	85.441999  
446.500000	84.919000  
447.000000	84.146000  
447.500000	84.174000  
448.000000	85.848000  
448.500000	85.989999  
449.000000	84.607000  
449.500000	83.177000  
450.000000	85.354000  
450.500000	83.839000  
451.000000	83.279000  
451.500000	83.361999  
452.000000	84.030000  
452.500000	83.488000  
453.000000	83.755000  
453.500000	80.927000  
454.000000	80.869000  
454.500000	81.308000  
455.000000	81.259000  
455.500000	80.649000  
456.000000	81.054000  
456.500000	81.024000  
457.000000	82.000000  
457.500000	78.587000  
458.000000	79.623000  
458.500000	78.496000  
459.000000	77.061000  
459.500000	78.058000  
460.000000	78.215999  
460.500000	76.581000  
461.000000	78.028000  
461.500000	77.892000  
462.000000	77.825999  
462.500000	77.846000  
463.000000	77.051000  
463.500000	74.935000  
464.000000	77.626000  
464.500000	77.959000  
465.000000	76.108999  
465.500000	75.126000  
466.000000	75.575999  
466.500000	75.512000  
467.000000	75.188999  
467.500000	75.860000  
468.000000	75.191000  
468.500000	73.843999  
469.000000	75.429000  
469.500000	75.907000  
470.000000	74.661000  
470.500000	73.916000  
471.000000	75.804000  
471.500000	76.799000  
472.000000	74.149000  
472.500000	71.459999  
473.000000	73.611000  
473.500000	75.171000  
474.000000	75.383000  
474.500000	73.630000  
475.000000	74.253000  
475.500000	74.590999  
476.000000	74.441000  
476.500000	73.864999  
477.000000	75.206000  
477.500000	75.589000  
478.000000	76.288000  
478.500000	75.340999  
479.000000	75.620000  
479.500000	75.611999  
480.000000	77.940000  
480.500000	76.022000  
481.000000	76.447999  
481.500000	76.575999  
482.000000	76.867000  
482.500000	74.938000  
483.000000	75.239999  
483.500000	77.173000  
484.000000	77.889000  
484.500000	76.617999  
485.000000	77.395000  
485.500000	75.557000  
486.000000	77.045000  
486.500000	76.050000  
487.000000	77.193000  
487.500000	78.803000  
488.000000	78.150000  
488.500000	77.602999  
489.000000	78.033000  
489.500000	78.584999  
490.000000	77.715000  
490.500000	77.295000  
491.000000	77.614999  
491.500000	78.705000  
492.000000	77.881000  
492.500000	78.145000  
493.000000	77.944999  
493.500000	78.447999  
494.000000	77.543000  
494.500000	78.227999  
495.000000	77.483999  
495.500000	78.182000  
496.000000	79.797000  
496.500000	77.735000  
497.000000	76.524000  
497.500000	78.620000  
498.000000	78.056000  
498.500000	76.590999  
499.000000	77.032000  
499.500000	76.569999  
500.000000	77.557000  
500.500000	77.941000  
501.000000	76.464000  
501.500000	76.024000  
502.000000	77.044000  
502.500000	76.769000  
503.000000	74.137000  
503.500000	75.560000  
504.000000	74.923000  
504.500000	74.989999  
505.000000	74.211000  
505.500000	75.121000  
506.000000	73.120000  
506.500000	73.271000  
507.000000	71.958000  
507.500000	73.407000  
508.000000	73.435000  
508.500000	73.135000  
509.000000	72.044000  
509.500000	72.700999  
510.000000	73.144000  
510.500000	71.637000  
511.000000	72.654000  
511.500000	72.117000  
512.000000	72.666000  
512.500000	71.629000  
513.000000	72.762000  
513.500000	71.694000  
514.000000	73.030000  
514.500000	70.920000  
515.000000	73.026000  
515.500000	71.218000  
516.000000	71.176000  
516.500000	71.888000  
517.000000	72.023000  
517.500000	71.601000  
518.000000	71.861999  
518.500000	72.066999  
519.000000	72.614000  
519.500000	74.113000  
520.000000	73.298000  
520.500000	75.074000  
521.000000	76.593999  
521.500000	78.206000  
522.000000	79.610000  
522.500000	84.133000  
523.000000	86.721000  
523.500000	91.822000  
524.000000	99.459999  
524.500000	107.746000 
525.000000	117.280000 
525.500000	128.343000 
526.000000	140.129000 
526.500000	159.174000 
527.000000	174.018000 
527.500000	193.081000 
528.000000	213.827000 
528.500000	234.791000 
529.000000	262.668000 
529.500000	293.792000 
530.000000	317.875000 
530.500000	354.053000 
531.000000	400.359000 
531.500000	437.985000 
532.000000	480.280000 
532.500000	523.103000 
533.000000	580.283000 
533.500000	623.657000 
534.000000	668.050000 
534.500000	728.125000 
535.000000	835.075000 
535.500000	845.048000 
536.000000	950.535999 
536.500000	959.183000 
537.000000	999.999000 
537.500000	999.999000 
538.000000	999.999000 
538.500000	999.999000 
539.000000	999.999000 
539.500000	999.999000 
540.000000	999.999000 
540.500000	999.999000 
541.000000	999.999000 
541.500000	999.999000 
542.000000	999.999000 
542.500000	999.999000 
543.000000	999.999000 
543.500000	999.999000 
544.000000	999.999000 
544.500000	999.999000 
545.000000	999.999000 
545.500000	999.999000 
546.000000	999.999000 
546.500000	999.999000 
547.000000	999.999000 
547.500000	999.999000 
548.000000	999.999000 
548.500000	999.999000 

