PE FL                   SPECTRUM    ASCII       PEDS        1.60        
  -1
014507~1.SP
19/01/24
13:29:00.00
19/01/24
13:29:00.00


548.500000
1









LS45
445.00
10.00
10.00
SCAN
1
16
100
100
0
600
0
1
0
1
7
ON
550 545 
0 0 0
#HDR
-1
-1
#GR
NM
INT 
0.00002384185791015625
0.0
230.000000
0.500000
638
8
999.999000
0.083000
#DATA
230.000000	0.128000   
230.500000	0.083000   
231.000000	0.086999   
231.500000	0.110000   
232.000000	0.139000   
232.500000	0.150000   
233.000000	0.158000   
233.500000	0.096000   
234.000000	0.110000   
234.500000	0.114000   
235.000000	0.098000   
235.500000	0.142000   
236.000000	0.120000   
236.500000	0.095000   
237.000000	0.147000   
237.500000	0.096000   
238.000000	0.140000   
238.500000	0.143000   
239.000000	0.156000   
239.500000	0.190000   
240.000000	0.159000   
240.500000	0.097000   
241.000000	0.124000   
241.500000	0.124000   
242.000000	0.084000   
242.500000	0.146000   
243.000000	0.164000   
243.500000	0.156000   
244.000000	0.193000   
244.500000	0.153000   
245.000000	0.115000   
245.500000	0.168000   
246.000000	0.209000   
246.500000	0.180000   
247.000000	0.175000   
247.500000	0.205000   
248.000000	0.150000   
248.500000	0.211000   
249.000000	0.189000   
249.500000	0.203000   
250.000000	0.213000   
250.500000	0.133000   
251.000000	0.157000   
251.500000	0.159000   
252.000000	0.134000   
252.500000	0.184000   
253.000000	0.204000   
253.500000	0.246000   
254.000000	0.217000   
254.500000	0.220000   
255.000000	0.190000   
255.500000	0.188000   
256.000000	0.181000   
256.500000	0.174000   
257.000000	0.192000   
257.500000	0.192000   
258.000000	0.119000   
258.500000	0.216000   
259.000000	0.221000   
259.500000	0.151000   
260.000000	0.109000   
260.500000	0.178000   
261.000000	0.187000   
261.500000	0.210000   
262.000000	0.169000   
262.500000	0.251000   
263.000000	0.188000   
263.500000	0.195000   
264.000000	0.220000   
264.500000	0.238000   
265.000000	0.278000   
265.500000	0.152000   
266.000000	0.214000   
266.500000	0.241000   
267.000000	0.199000   
267.500000	0.169000   
268.000000	0.180000   
268.500000	0.214000   
269.000000	0.187000   
269.500000	0.182000   
270.000000	0.170000   
270.500000	0.202000   
271.000000	0.170000   
271.500000	0.284000   
272.000000	0.189000   
272.500000	0.222000   
273.000000	0.215000   
273.500000	0.157000   
274.000000	0.165000   
274.500000	0.183000   
275.000000	0.282000   
275.500000	0.218000   
276.000000	0.193000   
276.500000	0.167000   
277.000000	0.239000   
277.500000	0.149000   
278.000000	0.208000   
278.500000	0.160000   
279.000000	0.193000   
279.500000	0.220000   
280.000000	0.200000   
280.500000	0.204000   
281.000000	0.203000   
281.500000	0.169000   
282.000000	0.160000   
282.500000	0.182000   
283.000000	0.220000   
283.500000	0.232000   
284.000000	0.218000   
284.500000	0.222000   
285.000000	0.230000   
285.500000	0.208000   
286.000000	0.216000   
286.500000	0.250000   
287.000000	0.165000   
287.500000	0.190000   
288.000000	0.202000   
288.500000	0.197000   
289.000000	0.181000   
289.500000	0.168000   
290.000000	0.186000   
290.500000	0.262000   
291.000000	0.270000   
291.500000	0.174000   
292.000000	0.251000   
292.500000	0.258000   
293.000000	0.220000   
293.500000	0.205000   
294.000000	0.227000   
294.500000	0.278000   
295.000000	0.220000   
295.500000	0.220000   
296.000000	0.231000   
296.500000	0.269000   
297.000000	0.224000   
297.500000	0.228000   
298.000000	0.196000   
298.500000	0.352000   
299.000000	0.271000   
299.500000	0.294000   
300.000000	0.283000   
300.500000	0.296000   
301.000000	0.325000   
301.500000	0.338000   
302.000000	0.239000   
302.500000	0.309000   
303.000000	0.280000   
303.500000	0.277000   
304.000000	0.265000   
304.500000	0.215000   
305.000000	0.294000   
305.500000	0.301000   
306.000000	0.254000   
306.500000	0.313000   
307.000000	0.257000   
307.500000	0.312000   
308.000000	0.348000   
308.500000	0.374000   
309.000000	0.358000   
309.500000	0.340000   
310.000000	0.328000   
310.500000	0.276000   
311.000000	0.305000   
311.500000	0.270000   
312.000000	0.331000   
312.500000	0.355000   
313.000000	0.306000   
313.500000	0.290000   
314.000000	0.261000   
314.500000	0.328000   
315.000000	0.365000   
315.500000	0.396000   
316.000000	0.361000   
316.500000	0.396000   
317.000000	0.303000   
317.500000	0.315000   
318.000000	0.335000   
318.500000	0.386000   
319.000000	0.365000   
319.500000	0.356000   
320.000000	0.342000   
320.500000	0.392000   
321.000000	0.315000   
321.500000	0.348000   
322.000000	0.405000   
322.500000	0.338000   
323.000000	0.349000   
323.500000	0.338000   
324.000000	0.352000   
324.500000	0.329000   
325.000000	0.339000   
325.500000	0.361000   
326.000000	0.380000   
326.500000	0.450000   
327.000000	0.480000   
327.500000	0.404000   
328.000000	0.490000   
328.500000	0.425000   
329.000000	0.439000   
329.500000	0.425000   
330.000000	0.355000   
330.500000	0.405000   
331.000000	0.436000   
331.500000	0.421000   
332.000000	0.493000   
332.500000	0.468000   
333.000000	0.412000   
333.500000	0.346000   
334.000000	0.437000   
334.500000	0.577000   
335.000000	0.352000   
335.500000	0.357000   
336.000000	0.423000   
336.500000	0.508000   
337.000000	0.521000   
337.500000	0.507000   
338.000000	0.485000   
338.500000	0.450000   
339.000000	0.488000   
339.500000	0.516000   
340.000000	0.582000   
340.500000	0.686000   
341.000000	0.519000   
341.500000	0.530000   
342.000000	0.506000   
342.500000	0.504000   
343.000000	0.515000   
343.500000	0.554000   
344.000000	0.494000   
344.500000	0.600000   
345.000000	0.616000   
345.500000	0.422000   
346.000000	0.517000   
346.500000	0.504000   
347.000000	0.542000   
347.500000	0.583000   
348.000000	0.602000   
348.500000	0.660000   
349.000000	0.590000   
349.500000	0.582000   
350.000000	0.592000   
350.500000	0.641000   
351.000000	0.694000   
351.500000	0.729000   
352.000000	0.705000   
352.500000	0.666000   
353.000000	0.592000   
353.500000	0.605000   
354.000000	0.572000   
354.500000	0.590000   
355.000000	0.685000   
355.500000	0.663000   
356.000000	0.645000   
356.500000	0.599000   
357.000000	0.641000   
357.500000	0.744000   
358.000000	0.719000   
358.500000	0.752000   
359.000000	0.746000   
359.500000	0.775000   
360.000000	0.561000   
360.500000	0.613000   
361.000000	0.749000   
361.500000	0.660000   
362.000000	0.660000   
362.500000	0.640000   
363.000000	0.657000   
363.500000	0.793000   
364.000000	0.755000   
364.500000	0.718000   
365.000000	0.720000   
365.500000	0.755000   
366.000000	0.692999   
366.500000	0.755000   
367.000000	0.729000   
367.500000	0.707000   
368.000000	0.687999   
368.500000	0.674000   
369.000000	0.606000   
369.500000	0.632000   
370.000000	0.720000   
370.500000	0.782000   
371.000000	0.777000   
371.500000	0.721000   
372.000000	0.727000   
372.500000	0.865000   
373.000000	0.931000   
373.500000	0.883000   
374.000000	0.914000   
374.500000	0.904000   
375.000000	0.839000   
375.500000	0.852000   
376.000000	0.869000   
376.500000	0.895000   
377.000000	0.851000   
377.500000	0.862000   
378.000000	0.932000   
378.500000	0.949000   
379.000000	0.923000   
379.500000	1.019000   
380.000000	0.974000   
380.500000	0.955000   
381.000000	1.039000   
381.500000	0.971000   
382.000000	1.143000   
382.500000	1.156000   
383.000000	1.206000   
383.500000	1.121000   
384.000000	1.156000   
384.500000	1.236000   
385.000000	1.184000   
385.500000	1.319000   
386.000000	1.194000   
386.500000	1.186000   
387.000000	1.310000   
387.500000	1.289000   
388.000000	1.225000   
388.500000	1.229000   
389.000000	1.331000   
389.500000	1.439000   
390.000000	1.349000   
390.500000	1.356000   
391.000000	1.507000   
391.500000	1.287000   
392.000000	1.389000   
392.500000	1.296000   
393.000000	1.536000   
393.500000	1.367000   
394.000000	1.543000   
394.500000	1.538000   
395.000000	1.444000   
395.500000	1.479000   
396.000000	1.545000   
396.500000	1.540000   
397.000000	1.549000   
397.500000	1.614000   
398.000000	1.703000   
398.500000	1.821000   
399.000000	1.952000   
399.500000	1.753000   
400.000000	1.882000   
400.500000	1.991000   
401.000000	1.883000   
401.500000	2.034000   
402.000000	2.032000   
402.500000	1.960000   
403.000000	2.168000   
403.500000	1.958000   
404.000000	2.197000   
404.500000	2.275000   
405.000000	2.344000   
405.500000	2.175000   
406.000000	2.216000   
406.500000	2.348000   
407.000000	2.268000   
407.500000	2.419000   
408.000000	2.110000   
408.500000	2.288000   
409.000000	2.490000   
409.500000	2.728000   
410.000000	2.602000   
410.500000	2.645000   
411.000000	2.963000   
411.500000	3.084000   
412.000000	3.182000   
412.500000	3.242000   
413.000000	2.997000   
413.500000	3.093000   
414.000000	3.209000   
414.500000	3.445000   
415.000000	3.323000   
415.500000	3.515000   
416.000000	3.757000   
416.500000	3.915000   
417.000000	3.735000   
417.500000	3.883000   
418.000000	3.947000   
418.500000	3.986000   
419.000000	4.334000   
419.500000	4.216000   
420.000000	4.436000   
420.500000	4.950000   
421.000000	5.756000   
421.500000	6.389000   
422.000000	7.697000   
422.500000	9.691000   
423.000000	11.830000  
423.500000	14.933000  
424.000000	19.398000  
424.500000	24.926000  
425.000000	33.573000  
425.500000	45.195000  
426.000000	56.206000  
426.500000	70.236000  
427.000000	85.996000  
427.500000	102.682000 
428.000000	127.441000 
428.500000	159.615000 
429.000000	188.702000 
429.500000	218.582000 
430.000000	257.443000 
430.500000	289.180000 
431.000000	336.158000 
431.500000	382.008000 
432.000000	431.759000 
432.500000	471.696000 
433.000000	525.399000 
433.500000	568.130000 
434.000000	623.092000 
434.500000	671.226000 
435.000000	718.338000 
435.500000	756.104000 
436.000000	803.285999 
436.500000	830.856000 
437.000000	867.456000 
437.500000	898.048000 
438.000000	930.261999 
438.500000	951.349000 
439.000000	971.756999 
439.500000	986.655999 
440.000000	999.999000 
440.500000	999.999000 
441.000000	999.999000 
441.500000	999.999000 
442.000000	999.999000 
442.500000	991.683000 
443.000000	975.484000 
443.500000	951.895000 
444.000000	935.473000 
444.500000	907.942000 
445.000000	882.450000 
445.500000	852.948000 
446.000000	818.227000 
446.500000	770.542000 
447.000000	723.535999 
447.500000	676.017000 
448.000000	631.539000 
448.500000	571.767000 
449.000000	472.972000 
449.500000	467.557000 
450.000000	378.378000 
450.500000	371.885000 
451.000000	336.627000 
451.500000	292.753000 
452.000000	258.038000 
452.500000	220.263000 
453.000000	186.307000 
453.500000	147.350000 
454.000000	126.945000 
454.500000	101.236000 
455.000000	81.233999  
455.500000	64.805000  
456.000000	51.974000  
456.500000	38.689000  
457.000000	31.509000  
457.500000	24.816000  
458.000000	19.625000  
458.500000	15.342000  
459.000000	12.913000  
459.500000	10.864000  
460.000000	9.587000   
460.500000	9.221000   
461.000000	7.915000   
461.500000	7.840000   
462.000000	7.651000   
462.500000	7.371000   
463.000000	7.283000   
463.500000	7.554000   
464.000000	6.965000   
464.500000	7.047000   
465.000000	7.170000   
465.500000	7.006000   
466.000000	7.492000   
466.500000	7.644000   
467.000000	7.452000   
467.500000	7.021000   
468.000000	7.407000   
468.500000	7.271000   
469.000000	7.403000   
469.500000	7.167000   
470.000000	7.937000   
470.500000	7.764000   
471.000000	7.413000   
471.500000	7.906000   
472.000000	7.985000   
472.500000	8.071999   
473.000000	8.077999   
473.500000	8.381000   
474.000000	8.428000   
474.500000	8.752000   
475.000000	8.457000   
475.500000	8.914999   
476.000000	8.544000   
476.500000	8.563000   
477.000000	8.743000   
477.500000	8.757999   
478.000000	9.651000   
478.500000	9.077999   
479.000000	9.757000   
479.500000	9.686000   
480.000000	10.007000  
480.500000	10.127000  
481.000000	9.926000   
481.500000	10.479000  
482.000000	10.381000  
482.500000	10.629000  
483.000000	11.103000  
483.500000	10.946000  
484.000000	10.909000  
484.500000	11.139000  
485.000000	11.613000  
485.500000	11.449000  
486.000000	11.734000  
486.500000	11.320000  
487.000000	11.548000  
487.500000	11.784000  
488.000000	11.651000  
488.500000	12.518000  
489.000000	11.763000  
489.500000	12.243000  
490.000000	12.515000  
490.500000	12.544000  
491.000000	13.283000  
491.500000	13.166000  
492.000000	13.340000  
492.500000	13.035000  
493.000000	13.313000  
493.500000	13.654000  
494.000000	13.761000  
494.500000	13.574000  
495.000000	13.703000  
495.500000	13.487000  
496.000000	13.989000  
496.500000	13.993000  
497.000000	14.015000  
497.500000	14.433000  
498.000000	14.472000  
498.500000	14.674000  
499.000000	14.622000  
499.500000	14.748000  
500.000000	14.974000  
500.500000	14.774000  
501.000000	15.299000  
501.500000	15.504000  
502.000000	15.526000  
502.500000	15.430000  
503.000000	15.555000  
503.500000	15.762000  
504.000000	15.978000  
504.500000	16.727000  
505.000000	16.194000  
505.500000	16.984000  
506.000000	16.619000  
506.500000	16.586000  
507.000000	16.599000  
507.500000	17.284000  
508.000000	17.887000  
508.500000	17.629000  
509.000000	17.811000  
509.500000	18.404000  
510.000000	18.903000  
510.500000	19.200000  
511.000000	18.910000  
511.500000	19.087000  
512.000000	19.390000  
512.500000	20.010000  
513.000000	20.206000  
513.500000	20.019000  
514.000000	19.804000  
514.500000	20.172000  
515.000000	19.662000  
515.500000	20.635000  
516.000000	20.168000  
516.500000	20.315000  
517.000000	20.628000  
517.500000	20.675000  
518.000000	20.364000  
518.500000	20.329000  
519.000000	20.875000  
519.500000	20.403000  
520.000000	20.437000  
520.500000	20.145000  
521.000000	20.272000  
521.500000	19.709000  
522.000000	19.965000  
522.500000	19.725000  
523.000000	19.238000  
523.500000	18.812000  
524.000000	18.306000  
524.500000	19.005000  
525.000000	18.674000  
525.500000	18.147000  
526.000000	17.761000  
526.500000	16.769000  
527.000000	17.038000  
527.500000	16.826000  
528.000000	16.351000  
528.500000	16.086000  
529.000000	15.806000  
529.500000	15.414000  
530.000000	14.864000  
530.500000	14.872000  
531.000000	14.557000  
531.500000	14.039000  
532.000000	13.934000  
532.500000	13.410000  
533.000000	13.360000  
533.500000	13.580000  
534.000000	13.169000  
534.500000	12.570000  
535.000000	12.031000  
535.500000	11.915000  
536.000000	11.838000  
536.500000	11.478000  
537.000000	11.611000  
537.500000	11.172000  
538.000000	11.135000  
538.500000	11.091000  
539.000000	10.650000  
539.500000	10.899000  
540.000000	10.370000  
540.500000	10.292000  
541.000000	9.859999   
541.500000	10.063000  
542.000000	9.965000   
542.500000	10.049000  
543.000000	9.715999   
543.500000	9.410000   
544.000000	9.430000   
544.500000	9.512000   
545.000000	8.930000   
545.500000	9.016000   
546.000000	9.061000   
546.500000	9.061000   
547.000000	9.173000   
547.500000	8.587000   
548.000000	8.722000   
548.500000	8.462000   

