PE FL                   SPECTRUM    ASCII       PEDS        1.60        
  -1
013107~1.SP
19/01/24
13:18:26.00
19/01/24
13:18:26.00


548.500000
1









LS45
375.00
10.00
10.00
SCAN
1
16
100
100
0
600
0
1
0
1
7
ON
550 545 
0 0 0
#HDR
-1
-1
#GR
NM
INT 
0.00002384185791015625
0.0
230.000000
0.500000
638
8
999.999000
0.291000
#DATA
230.000000	0.551000   
230.500000	0.420000   
231.000000	0.420000   
231.500000	0.514000   
232.000000	0.385000   
232.500000	0.383000   
233.000000	0.366000   
233.500000	0.394000   
234.000000	0.428000   
234.500000	0.427000   
235.000000	0.387000   
235.500000	0.319000   
236.000000	0.457000   
236.500000	0.361000   
237.000000	0.389000   
237.500000	0.512000   
238.000000	0.541000   
238.500000	0.443000   
239.000000	0.436000   
239.500000	0.443000   
240.000000	0.357000   
240.500000	0.462000   
241.000000	0.451000   
241.500000	0.398000   
242.000000	0.407000   
242.500000	0.370000   
243.000000	0.291000   
243.500000	0.515000   
244.000000	0.406000   
244.500000	0.377000   
245.000000	0.378000   
245.500000	0.482000   
246.000000	0.375000   
246.500000	0.476000   
247.000000	0.430000   
247.500000	0.365000   
248.000000	0.516000   
248.500000	0.498000   
249.000000	0.495000   
249.500000	0.449000   
250.000000	0.388000   
250.500000	0.506000   
251.000000	0.459000   
251.500000	0.440000   
252.000000	0.463000   
252.500000	0.427000   
253.000000	0.431000   
253.500000	0.461000   
254.000000	0.465000   
254.500000	0.583000   
255.000000	0.621000   
255.500000	0.513000   
256.000000	0.538000   
256.500000	0.558000   
257.000000	0.502000   
257.500000	0.527000   
258.000000	0.609000   
258.500000	0.730000   
259.000000	0.623000   
259.500000	0.560000   
260.000000	0.557000   
260.500000	0.635000   
261.000000	0.607000   
261.500000	0.527000   
262.000000	0.502000   
262.500000	0.508000   
263.000000	0.476000   
263.500000	0.502000   
264.000000	0.466000   
264.500000	0.497000   
265.000000	0.622000   
265.500000	0.617000   
266.000000	0.610000   
266.500000	0.659000   
267.000000	0.528000   
267.500000	0.667000   
268.000000	0.643000   
268.500000	0.540000   
269.000000	0.635000   
269.500000	0.537000   
270.000000	0.588000   
270.500000	0.516000   
271.000000	0.548000   
271.500000	0.554000   
272.000000	0.579000   
272.500000	0.684000   
273.000000	0.628000   
273.500000	0.585000   
274.000000	0.705000   
274.500000	0.704000   
275.000000	0.635000   
275.500000	0.575000   
276.000000	0.583000   
276.500000	0.547000   
277.000000	0.665000   
277.500000	0.729000   
278.000000	0.596000   
278.500000	0.685000   
279.000000	0.614000   
279.500000	0.623000   
280.000000	0.690999   
280.500000	0.743000   
281.000000	0.680000   
281.500000	0.777000   
282.000000	0.767000   
282.500000	0.764000   
283.000000	0.811000   
283.500000	0.864000   
284.000000	0.659000   
284.500000	0.794000   
285.000000	0.833000   
285.500000	0.775000   
286.000000	0.794000   
286.500000	0.720000   
287.000000	0.697000   
287.500000	0.734000   
288.000000	0.844000   
288.500000	0.769000   
289.000000	0.731000   
289.500000	0.851000   
290.000000	0.777000   
290.500000	0.829000   
291.000000	0.838000   
291.500000	0.851000   
292.000000	0.636000   
292.500000	0.703000   
293.000000	0.961000   
293.500000	0.883000   
294.000000	0.934000   
294.500000	0.857000   
295.000000	0.869000   
295.500000	0.812000   
296.000000	0.858000   
296.500000	1.007000   
297.000000	0.935000   
297.500000	0.907000   
298.000000	0.931000   
298.500000	0.975000   
299.000000	0.970000   
299.500000	0.963000   
300.000000	1.158000   
300.500000	0.995000   
301.000000	1.135000   
301.500000	1.086000   
302.000000	1.106000   
302.500000	1.000000   
303.000000	1.112000   
303.500000	1.053000   
304.000000	1.127000   
304.500000	1.069000   
305.000000	1.012000   
305.500000	1.311000   
306.000000	1.097000   
306.500000	1.166000   
307.000000	1.041000   
307.500000	1.081000   
308.000000	1.250000   
308.500000	1.119000   
309.000000	1.072000   
309.500000	1.083000   
310.000000	0.997000   
310.500000	1.041000   
311.000000	1.169000   
311.500000	1.126000   
312.000000	1.268000   
312.500000	1.285000   
313.000000	1.335000   
313.500000	1.366000   
314.000000	1.372000   
314.500000	1.353000   
315.000000	1.381000   
315.500000	1.465000   
316.000000	1.596000   
316.500000	1.448000   
317.000000	1.283000   
317.500000	1.502000   
318.000000	1.402000   
318.500000	1.440000   
319.000000	1.615000   
319.500000	1.747000   
320.000000	1.674000   
320.500000	1.556000   
321.000000	1.838000   
321.500000	1.724000   
322.000000	2.023000   
322.500000	2.038000   
323.000000	1.789000   
323.500000	1.831000   
324.000000	2.160000   
324.500000	2.164000   
325.000000	2.268000   
325.500000	1.970000   
326.000000	2.119000   
326.500000	2.471000   
327.000000	2.684000   
327.500000	2.501000   
328.000000	2.156000   
328.500000	2.512000   
329.000000	2.859000   
329.500000	2.821000   
330.000000	2.667000   
330.500000	2.625000   
331.000000	2.695000   
331.500000	2.836000   
332.000000	3.005000   
332.500000	3.487000   
333.000000	3.297000   
333.500000	3.085000   
334.000000	3.380000   
334.500000	3.593000   
335.000000	3.814000   
335.500000	3.771000   
336.000000	3.985000   
336.500000	4.081000   
337.000000	4.183000   
337.500000	4.271000   
338.000000	4.421000   
338.500000	4.116000   
339.000000	4.509000   
339.500000	4.803000   
340.000000	4.530000   
340.500000	4.883000   
341.000000	4.972000   
341.500000	5.103000   
342.000000	5.285000   
342.500000	5.614000   
343.000000	5.980000   
343.500000	5.896000   
344.000000	5.762000   
344.500000	5.587000   
345.000000	6.314000   
345.500000	6.714000   
346.000000	6.695000   
346.500000	6.924000   
347.000000	6.807000   
347.500000	7.338000   
348.000000	7.742000   
348.500000	7.577000   
349.000000	8.029999   
349.500000	8.159000   
350.000000	8.948000   
350.500000	9.282000   
351.000000	11.137000  
351.500000	12.725000  
352.000000	15.628000  
352.500000	18.919000  
353.000000	24.039000  
353.500000	30.861000  
354.000000	39.684000  
354.500000	51.098000  
355.000000	66.324000  
355.500000	85.828000  
356.000000	105.249000 
356.500000	128.800000 
357.000000	154.173000 
357.500000	190.202000 
358.000000	222.510000 
358.500000	272.425000 
359.000000	319.476000 
359.500000	376.708000 
360.000000	483.801000 
360.500000	492.817000 
361.000000	610.361000 
361.500000	621.476000 
362.000000	782.478000 
362.500000	790.202000 
363.000000	915.610000 
363.500000	927.222000 
364.000000	999.999000 
364.500000	999.999000 
365.000000	999.999000 
365.500000	999.999000 
366.000000	999.999000 
366.500000	999.999000 
367.000000	999.999000 
367.500000	999.999000 
368.000000	999.999000 
368.500000	999.999000 
369.000000	999.999000 
369.500000	999.999000 
370.000000	999.999000 
370.500000	999.999000 
371.000000	999.999000 
371.500000	999.999000 
372.000000	999.999000 
372.500000	999.999000 
373.000000	999.999000 
373.500000	999.999000 
374.000000	999.999000 
374.500000	999.999000 
375.000000	999.999000 
375.500000	999.999000 
376.000000	999.999000 
376.500000	999.999000 
377.000000	999.999000 
377.500000	999.999000 
378.000000	999.999000 
378.500000	999.999000 
379.000000	919.802000 
379.500000	907.250000 
380.000000	772.364000 
380.500000	705.532000 
381.000000	631.473000 
381.500000	551.950000 
382.000000	540.165000 
382.500000	423.572000 
383.000000	413.623000 
383.500000	362.274000 
384.000000	308.022000 
384.500000	266.061000 
385.000000	218.539000 
385.500000	179.908000 
386.000000	146.797000 
386.500000	123.611000 
387.000000	99.020000  
387.500000	85.005000  
388.000000	67.879000  
388.500000	57.284000  
389.000000	47.208000  
389.500000	39.405000  
390.000000	33.824000  
390.500000	28.692000  
391.000000	25.633000  
391.500000	24.572000  
392.000000	23.309000  
392.500000	21.244000  
393.000000	21.932000  
393.500000	22.188000  
394.000000	21.861000  
394.500000	21.664000  
395.000000	22.267000  
395.500000	22.202000  
396.000000	22.800000  
396.500000	23.588000  
397.000000	23.353000  
397.500000	23.616000  
398.000000	24.234000  
398.500000	23.917000  
399.000000	24.322000  
399.500000	24.241000  
400.000000	24.085000  
400.500000	25.364000  
401.000000	25.803000  
401.500000	26.395000  
402.000000	26.435000  
402.500000	26.942000  
403.000000	27.635000  
403.500000	28.676000  
404.000000	28.856000  
404.500000	29.766000  
405.000000	29.256000  
405.500000	30.815000  
406.000000	30.946000  
406.500000	31.621000  
407.000000	32.336000  
407.500000	33.386000  
408.000000	33.224000  
408.500000	34.807000  
409.000000	36.159000  
409.500000	37.081000  
410.000000	38.116000  
410.500000	38.850000  
411.000000	41.496000  
411.500000	41.798000  
412.000000	42.450000  
412.500000	44.857000  
413.000000	46.459000  
413.500000	46.372000  
414.000000	48.715000  
414.500000	49.961000  
415.000000	52.035000  
415.500000	55.954000  
416.000000	56.445000  
416.500000	59.569000  
417.000000	61.252000  
417.500000	63.164000  
418.000000	65.477999  
418.500000	67.507000  
419.000000	70.188999  
419.500000	72.634000  
420.000000	73.105999  
420.500000	76.056000  
421.000000	77.663000  
421.500000	79.860000  
422.000000	81.139000  
422.500000	81.741000  
423.000000	82.959000  
423.500000	84.173000  
424.000000	86.288000  
424.500000	86.999000  
425.000000	86.468999  
425.500000	87.864000  
426.000000	86.758000  
426.500000	87.397000  
427.000000	88.595000  
427.500000	88.313999  
428.000000	86.697000  
428.500000	89.724000  
429.000000	88.155000  
429.500000	86.396000  
430.000000	86.113000  
430.500000	86.203999  
431.000000	84.745000  
431.500000	84.233999  
432.000000	82.787000  
432.500000	82.925000  
433.000000	82.309000  
433.500000	80.098000  
434.000000	79.653000  
434.500000	78.263000  
435.000000	78.178000  
435.500000	77.787000  
436.000000	76.651000  
436.500000	77.217000  
437.000000	76.559000  
437.500000	75.096000  
438.000000	73.278000  
438.500000	73.024000  
439.000000	73.108999  
439.500000	72.253000  
440.000000	72.429000  
440.500000	70.783000  
441.000000	69.065000  
441.500000	70.815000  
442.000000	70.295000  
442.500000	69.543000  
443.000000	69.665000  
443.500000	69.276000  
444.000000	68.813999  
444.500000	68.739999  
445.000000	69.083000  
445.500000	68.688999  
446.000000	68.726000  
446.500000	69.065000  
447.000000	69.256000  
447.500000	68.254000  
448.000000	68.535000  
448.500000	68.776000  
449.000000	67.556000  
449.500000	68.184000  
450.000000	68.435000  
450.500000	68.976000  
451.000000	68.087000  
451.500000	68.370000  
452.000000	68.251000  
452.500000	67.589000  
453.000000	67.934000  
453.500000	67.635000  
454.000000	67.468999  
454.500000	67.253000  
455.000000	66.285000  
455.500000	67.441999  
456.000000	66.205000  
456.500000	66.177000  
457.000000	64.807000  
457.500000	65.782000  
458.000000	65.473000  
458.500000	64.471999  
459.000000	65.438000  
459.500000	64.529000  
460.000000	65.233000  
460.500000	64.037000  
461.000000	63.663000  
461.500000	62.749000  
462.000000	62.609000  
462.500000	62.928000  
463.000000	62.313000  
463.500000	61.123000  
464.000000	61.315000  
464.500000	60.509000  
465.000000	60.763000  
465.500000	60.904000  
466.000000	60.032000  
466.500000	60.506000  
467.000000	58.466000  
467.500000	58.560000  
468.000000	58.130000  
468.500000	58.323000  
469.000000	57.071000  
469.500000	57.874000  
470.000000	57.589000  
470.500000	57.179000  
471.000000	57.137000  
471.500000	56.718000  
472.000000	56.175000  
472.500000	54.841000  
473.000000	56.124000  
473.500000	54.595000  
474.000000	55.662000  
474.500000	55.131000  
475.000000	54.905000  
475.500000	54.518000  
476.000000	53.953000  
476.500000	54.076000  
477.000000	53.340000  
477.500000	53.318000  
478.000000	52.058000  
478.500000	52.898000  
479.000000	52.826000  
479.500000	51.874000  
480.000000	51.365000  
480.500000	52.006000  
481.000000	51.444000  
481.500000	50.181000  
482.000000	49.939000  
482.500000	49.203000  
483.000000	48.708000  
483.500000	49.027000  
484.000000	48.727000  
484.500000	49.061000  
485.000000	48.404000  
485.500000	48.899000  
486.000000	46.510000  
486.500000	46.652000  
487.000000	46.123000  
487.500000	45.409000  
488.000000	44.564000  
488.500000	44.842000  
489.000000	45.702000  
489.500000	44.947000  
490.000000	43.493000  
490.500000	44.614000  
491.000000	43.515000  
491.500000	41.765000  
492.000000	42.835000  
492.500000	43.284000  
493.000000	42.857000  
493.500000	41.849000  
494.000000	40.340000  
494.500000	40.987000  
495.000000	40.055000  
495.500000	40.019000  
496.000000	40.393000  
496.500000	40.259000  
497.000000	39.565000  
497.500000	38.378000  
498.000000	38.038000  
498.500000	38.142000  
499.000000	37.743000  
499.500000	36.190000  
500.000000	36.378000  
500.500000	36.472000  
501.000000	36.515000  
501.500000	35.825000  
502.000000	35.591000  
502.500000	34.553000  
503.000000	34.753000  
503.500000	34.709000  
504.000000	34.494000  
504.500000	34.183000  
505.000000	33.262000  
505.500000	33.130000  
506.000000	33.256000  
506.500000	32.472000  
507.000000	32.342000  
507.500000	31.619000  
508.000000	31.703000  
508.500000	31.368000  
509.000000	30.674000  
509.500000	29.741000  
510.000000	30.166000  
510.500000	30.216000  
511.000000	28.369000  
511.500000	28.531000  
512.000000	28.819000  
512.500000	29.055000  
513.000000	28.243000  
513.500000	27.690000  
514.000000	27.434000  
514.500000	27.853000  
515.000000	27.033000  
515.500000	27.151000  
516.000000	25.847000  
516.500000	26.239000  
517.000000	26.446000  
517.500000	26.259000  
518.000000	25.476000  
518.500000	24.693000  
519.000000	25.178000  
519.500000	24.838000  
520.000000	24.614000  
520.500000	24.770000  
521.000000	23.234000  
521.500000	23.477000  
522.000000	23.199000  
522.500000	22.920000  
523.000000	22.345000  
523.500000	22.593000  
524.000000	21.716000  
524.500000	21.097000  
525.000000	21.799000  
525.500000	21.522000  
526.000000	21.026000  
526.500000	20.597000  
527.000000	19.863000  
527.500000	20.200000  
528.000000	20.454000  
528.500000	19.585000  
529.000000	19.887000  
529.500000	19.386000  
530.000000	18.440000  
530.500000	17.811000  
531.000000	18.478000  
531.500000	17.886000  
532.000000	17.476000  
532.500000	18.024000  
533.000000	17.955000  
533.500000	16.545000  
534.000000	16.239000  
534.500000	16.411000  
535.000000	15.836000  
535.500000	16.001000  
536.000000	15.378000  
536.500000	15.210000  
537.000000	15.325000  
537.500000	14.923000  
538.000000	14.479000  
538.500000	14.633000  
539.000000	14.242000  
539.500000	14.640000  
540.000000	14.103000  
540.500000	13.922000  
541.000000	13.397000  
541.500000	13.332000  
542.000000	13.553000  
542.500000	13.184000  
543.000000	12.296000  
543.500000	12.784000  
544.000000	12.085000  
544.500000	12.028000  
545.000000	12.383000  
545.500000	12.025000  
546.000000	11.785000  
546.500000	11.752000  
547.000000	11.331000  
547.500000	10.799000  
548.000000	10.982000  
548.500000	11.076000  

