PE FL                   SPECTRUM    ASCII       PEDS        1.60        
  -1
0124SC~4.SP
19/01/24
13:33:31.00
19/01/24
13:33:31.00


548.500000
1









LS45
475.00
10.00
10.00
SCAN
1
16
100
100
0
600
0
1
0
1
7
ON
550 545 
0 0 0
#HDR
-1
-1
#GR
NM
INT 
0.00002384185791015625
0.0
230.000000
0.500000
638
8
731.237000
0.070000
#DATA
230.000000	0.138000   
230.500000	0.084000   
231.000000	0.169000   
231.500000	0.186000   
232.000000	0.121000   
232.500000	0.123000   
233.000000	0.083000   
233.500000	0.095000   
234.000000	0.115000   
234.500000	0.118000   
235.000000	0.086999   
235.500000	0.150000   
236.000000	0.127000   
236.500000	0.156000   
237.000000	0.116000   
237.500000	0.134000   
238.000000	0.152000   
238.500000	0.106000   
239.000000	0.132000   
239.500000	0.123000   
240.000000	0.103000   
240.500000	0.144000   
241.000000	0.117000   
241.500000	0.103000   
242.000000	0.152000   
242.500000	0.100000   
243.000000	0.129000   
243.500000	0.115000   
244.000000	0.108000   
244.500000	0.154000   
245.000000	0.159000   
245.500000	0.134000   
246.000000	0.144000   
246.500000	0.141000   
247.000000	0.121000   
247.500000	0.158000   
248.000000	0.168000   
248.500000	0.099000   
249.000000	0.099000   
249.500000	0.189000   
250.000000	0.117000   
250.500000	0.135000   
251.000000	0.138000   
251.500000	0.204000   
252.000000	0.142000   
252.500000	0.129000   
253.000000	0.177000   
253.500000	0.197000   
254.000000	0.240000   
254.500000	0.179000   
255.000000	0.211000   
255.500000	0.184000   
256.000000	0.181000   
256.500000	0.170000   
257.000000	0.176000   
257.500000	0.187000   
258.000000	0.141000   
258.500000	0.182000   
259.000000	0.184000   
259.500000	0.140000   
260.000000	0.229000   
260.500000	0.186000   
261.000000	0.191000   
261.500000	0.144000   
262.000000	0.136000   
262.500000	0.147000   
263.000000	0.146000   
263.500000	0.206000   
264.000000	0.196000   
264.500000	0.124000   
265.000000	0.185000   
265.500000	0.171000   
266.000000	0.175000   
266.500000	0.199000   
267.000000	0.143000   
267.500000	0.120000   
268.000000	0.238000   
268.500000	0.139000   
269.000000	0.097000   
269.500000	0.101000   
270.000000	0.115000   
270.500000	0.124000   
271.000000	0.144000   
271.500000	0.122000   
272.000000	0.135000   
272.500000	0.103000   
273.000000	0.119000   
273.500000	0.104000   
274.000000	0.124000   
274.500000	0.085000   
275.000000	0.070000   
275.500000	0.111000   
276.000000	0.095000   
276.500000	0.121000   
277.000000	0.085000   
277.500000	0.105000   
278.000000	0.120000   
278.500000	0.108000   
279.000000	0.102000   
279.500000	0.127000   
280.000000	0.162000   
280.500000	0.119000   
281.000000	0.157000   
281.500000	0.134000   
282.000000	0.153000   
282.500000	0.093000   
283.000000	0.097000   
283.500000	0.096000   
284.000000	0.112000   
284.500000	0.165000   
285.000000	0.125000   
285.500000	0.182000   
286.000000	0.151000   
286.500000	0.102000   
287.000000	0.150000   
287.500000	0.212000   
288.000000	0.225000   
288.500000	0.142000   
289.000000	0.173000   
289.500000	0.158000   
290.000000	0.145000   
290.500000	0.189000   
291.000000	0.176000   
291.500000	0.134000   
292.000000	0.110000   
292.500000	0.152000   
293.000000	0.149000   
293.500000	0.178000   
294.000000	0.178000   
294.500000	0.120000   
295.000000	0.212000   
295.500000	0.224000   
296.000000	0.177000   
296.500000	0.144000   
297.000000	0.168000   
297.500000	0.141000   
298.000000	0.204000   
298.500000	0.254000   
299.000000	0.202000   
299.500000	0.198000   
300.000000	0.179000   
300.500000	0.142000   
301.000000	0.171000   
301.500000	0.233000   
302.000000	0.218000   
302.500000	0.182000   
303.000000	0.188000   
303.500000	0.209000   
304.000000	0.188000   
304.500000	0.199000   
305.000000	0.183000   
305.500000	0.243000   
306.000000	0.244000   
306.500000	0.244000   
307.000000	0.215000   
307.500000	0.209000   
308.000000	0.249000   
308.500000	0.300000   
309.000000	0.342000   
309.500000	0.272000   
310.000000	0.243000   
310.500000	0.266000   
311.000000	0.300000   
311.500000	0.330000   
312.000000	0.273000   
312.500000	0.216000   
313.000000	0.261000   
313.500000	0.261000   
314.000000	0.320000   
314.500000	0.246000   
315.000000	0.274000   
315.500000	0.365000   
316.000000	0.373000   
316.500000	0.301000   
317.000000	0.333000   
317.500000	0.311000   
318.000000	0.352000   
318.500000	0.371000   
319.000000	0.327000   
319.500000	0.396000   
320.000000	0.420000   
320.500000	0.329000   
321.000000	0.373000   
321.500000	0.371000   
322.000000	0.469000   
322.500000	0.404000   
323.000000	0.328000   
323.500000	0.383000   
324.000000	0.374000   
324.500000	0.443000   
325.000000	0.405000   
325.500000	0.483000   
326.000000	0.431000   
326.500000	0.433000   
327.000000	0.356000   
327.500000	0.480000   
328.000000	0.448000   
328.500000	0.372000   
329.000000	0.449000   
329.500000	0.524000   
330.000000	0.554000   
330.500000	0.538000   
331.000000	0.599000   
331.500000	0.600000   
332.000000	0.517000   
332.500000	0.515000   
333.000000	0.624000   
333.500000	0.450000   
334.000000	0.599000   
334.500000	0.630000   
335.000000	0.586000   
335.500000	0.724000   
336.000000	0.771000   
336.500000	0.596000   
337.000000	0.502000   
337.500000	0.465000   
338.000000	0.418000   
338.500000	0.510000   
339.000000	0.613000   
339.500000	0.617000   
340.000000	0.530000   
340.500000	0.623000   
341.000000	0.605000   
341.500000	0.686000   
342.000000	0.631000   
342.500000	0.526000   
343.000000	0.628000   
343.500000	0.656000   
344.000000	0.715000   
344.500000	0.649000   
345.000000	0.645000   
345.500000	0.672000   
346.000000	0.809000   
346.500000	0.692999   
347.000000	0.687000   
347.500000	0.597000   
348.000000	0.543000   
348.500000	0.632000   
349.000000	0.738000   
349.500000	0.758000   
350.000000	0.691999   
350.500000	0.684000   
351.000000	0.682000   
351.500000	0.702000   
352.000000	0.767000   
352.500000	0.606000   
353.000000	0.672000   
353.500000	0.668000   
354.000000	0.841000   
354.500000	0.797000   
355.000000	0.832000   
355.500000	0.704000   
356.000000	0.754000   
356.500000	0.725000   
357.000000	0.744000   
357.500000	0.602000   
358.000000	0.657000   
358.500000	0.606000   
359.000000	0.656000   
359.500000	0.810000   
360.000000	0.878000   
360.500000	0.716000   
361.000000	0.744000   
361.500000	0.644000   
362.000000	0.849000   
362.500000	0.745000   
363.000000	0.790000   
363.500000	0.840000   
364.000000	0.775000   
364.500000	0.607000   
365.000000	0.912000   
365.500000	0.734000   
366.000000	0.805000   
366.500000	0.736000   
367.000000	0.672000   
367.500000	0.725000   
368.000000	0.785000   
368.500000	0.888000   
369.000000	0.843000   
369.500000	0.826000   
370.000000	0.870000   
370.500000	0.751000   
371.000000	0.692999   
371.500000	0.660000   
372.000000	0.777000   
372.500000	0.722000   
373.000000	0.729000   
373.500000	0.918000   
374.000000	0.782000   
374.500000	0.819000   
375.000000	0.785000   
375.500000	0.883000   
376.000000	0.901000   
376.500000	0.848000   
377.000000	0.958000   
377.500000	0.907000   
378.000000	0.801000   
378.500000	0.893000   
379.000000	0.907000   
379.500000	0.906000   
380.000000	0.768000   
380.500000	0.852000   
381.000000	0.784000   
381.500000	0.799000   
382.000000	0.836000   
382.500000	0.813999   
383.000000	0.891000   
383.500000	0.899000   
384.000000	0.990000   
384.500000	0.971000   
385.000000	0.839000   
385.500000	0.786000   
386.000000	0.889000   
386.500000	0.969000   
387.000000	0.918000   
387.500000	0.826000   
388.000000	0.922000   
388.500000	0.753000   
389.000000	0.961000   
389.500000	0.939999   
390.000000	0.815999   
390.500000	0.880000   
391.000000	0.965000   
391.500000	0.875000   
392.000000	0.799000   
392.500000	0.953000   
393.000000	0.900000   
393.500000	0.887000   
394.000000	0.836000   
394.500000	0.954000   
395.000000	0.956000   
395.500000	1.109000   
396.000000	1.007000   
396.500000	0.980000   
397.000000	0.862000   
397.500000	1.083000   
398.000000	0.970000   
398.500000	0.829000   
399.000000	0.959000   
399.500000	0.975000   
400.000000	1.016000   
400.500000	0.994000   
401.000000	1.109000   
401.500000	1.012000   
402.000000	0.992000   
402.500000	1.184000   
403.000000	0.931000   
403.500000	0.918000   
404.000000	0.863000   
404.500000	1.061000   
405.000000	1.168000   
405.500000	1.041000   
406.000000	0.972000   
406.500000	1.017000   
407.000000	1.089000   
407.500000	1.072000   
408.000000	1.114000   
408.500000	1.089000   
409.000000	1.243000   
409.500000	1.159000   
410.000000	1.082000   
410.500000	1.186000   
411.000000	1.275000   
411.500000	1.201000   
412.000000	1.232000   
412.500000	1.349000   
413.000000	1.234000   
413.500000	1.353000   
414.000000	1.369000   
414.500000	1.278000   
415.000000	1.275000   
415.500000	1.408000   
416.000000	1.383000   
416.500000	1.530000   
417.000000	1.464000   
417.500000	1.486000   
418.000000	1.569000   
418.500000	1.545000   
419.000000	1.622000   
419.500000	1.607000   
420.000000	1.540000   
420.500000	1.533000   
421.000000	1.605000   
421.500000	1.619000   
422.000000	1.681000   
422.500000	1.735000   
423.000000	1.548000   
423.500000	1.801000   
424.000000	1.785000   
424.500000	1.793000   
425.000000	1.709000   
425.500000	1.755000   
426.000000	1.732000   
426.500000	1.643000   
427.000000	1.750000   
427.500000	1.867000   
428.000000	1.871000   
428.500000	1.797000   
429.000000	1.783000   
429.500000	1.802000   
430.000000	1.692000   
430.500000	1.900000   
431.000000	1.820000   
431.500000	1.903000   
432.000000	1.946000   
432.500000	1.985000   
433.000000	1.934000   
433.500000	2.056000   
434.000000	1.812000   
434.500000	2.006000   
435.000000	1.990000   
435.500000	1.946000   
436.000000	2.094000   
436.500000	1.969000   
437.000000	2.179000   
437.500000	2.111000   
438.000000	2.252000   
438.500000	2.244000   
439.000000	2.443000   
439.500000	2.433000   
440.000000	2.444000   
440.500000	2.398000   
441.000000	2.608000   
441.500000	2.496000   
442.000000	2.617000   
442.500000	2.541000   
443.000000	2.598000   
443.500000	2.633000   
444.000000	2.679000   
444.500000	2.710000   
445.000000	2.673000   
445.500000	2.752000   
446.000000	2.954000   
446.500000	3.185000   
447.000000	3.129000   
447.500000	2.947000   
448.000000	3.120000   
448.500000	3.385000   
449.000000	3.635000   
449.500000	3.527000   
450.000000	3.611000   
450.500000	4.147000   
451.000000	4.398000   
451.500000	5.360000   
452.000000	6.109000   
452.500000	7.975000   
453.000000	9.941000   
453.500000	13.326000  
454.000000	15.938000  
454.500000	20.972000  
455.000000	26.108000  
455.500000	33.863000  
456.000000	42.327000  
456.500000	54.661000  
457.000000	65.242999  
457.500000	77.989999  
458.000000	92.804000  
458.500000	109.392000 
459.000000	129.232000 
459.500000	152.440000 
460.000000	177.648000 
460.500000	200.630000 
461.000000	230.220000 
461.500000	258.499000 
462.000000	296.350000 
462.500000	327.317000 
463.000000	362.939000 
463.500000	393.284000 
464.000000	429.661000 
464.500000	462.994000 
465.000000	507.721000 
465.500000	531.099000 
466.000000	567.425000 
466.500000	592.224000 
467.000000	617.737000 
467.500000	644.381999 
468.000000	675.934000 
468.500000	686.718000 
469.000000	703.893000 
469.500000	715.820000 
470.000000	728.897000 
470.500000	728.857000 
471.000000	731.237000 
471.500000	725.414000 
472.000000	721.556000 
472.500000	707.588000 
473.000000	693.043000 
473.500000	680.054000 
474.000000	655.498000 
474.500000	636.241000 
475.000000	607.182000 
475.500000	580.582000 
476.000000	543.412000 
476.500000	517.136000 
477.000000	484.778000 
477.500000	449.795000 
478.000000	415.407000 
478.500000	380.978000 
479.000000	343.465000 
479.500000	312.049000 
480.000000	282.441000 
480.500000	249.801000 
481.000000	217.408000 
481.500000	191.837000 
482.000000	167.067000 
482.500000	142.976000 
483.000000	125.776000 
483.500000	103.164000 
484.000000	86.745000  
484.500000	70.717000  
485.000000	60.897000  
485.500000	48.141000  
486.000000	40.348000  
486.500000	30.352000  
487.000000	25.540000  
487.500000	20.613000  
488.000000	16.518000  
488.500000	13.386000  
489.000000	11.202000  
489.500000	9.130000   
490.000000	7.742000   
490.500000	7.176000   
491.000000	6.370000   
491.500000	5.810000   
492.000000	5.937000   
492.500000	5.759000   
493.000000	5.364000   
493.500000	5.226000   
494.000000	5.356000   
494.500000	5.073000   
495.000000	4.915000   
495.500000	5.089000   
496.000000	5.197000   
496.500000	5.097000   
497.000000	5.207000   
497.500000	5.150000   
498.000000	5.072000   
498.500000	5.038000   
499.000000	4.851000   
499.500000	4.791000   
500.000000	4.595000   
500.500000	5.055000   
501.000000	4.976000   
501.500000	4.932000   
502.000000	5.380000   
502.500000	4.879000   
503.000000	4.723000   
503.500000	4.814000   
504.000000	4.384000   
504.500000	4.735000   
505.000000	4.855000   
505.500000	5.042000   
506.000000	5.221000   
506.500000	5.107000   
507.000000	4.788000   
507.500000	5.284000   
508.000000	5.088000   
508.500000	5.323000   
509.000000	5.184000   
509.500000	5.093000   
510.000000	5.356000   
510.500000	5.125000   
511.000000	5.125000   
511.500000	5.155000   
512.000000	4.998000   
512.500000	4.903000   
513.000000	4.892000   
513.500000	5.262000   
514.000000	4.832000   
514.500000	5.280000   
515.000000	4.971000   
515.500000	4.879000   
516.000000	5.075000   
516.500000	5.010000   
517.000000	4.713000   
517.500000	4.867000   
518.000000	5.219000   
518.500000	4.694000   
519.000000	4.886000   
519.500000	5.209000   
520.000000	4.658000   
520.500000	4.761000   
521.000000	4.923000   
521.500000	4.679000   
522.000000	4.791000   
522.500000	4.847000   
523.000000	4.625000   
523.500000	4.543000   
524.000000	4.625000   
524.500000	4.329000   
525.000000	4.560000   
525.500000	4.312000   
526.000000	4.248000   
526.500000	4.315000   
527.000000	4.233000   
527.500000	4.177000   
528.000000	3.952000   
528.500000	4.146000   
529.000000	4.218000   
529.500000	4.164000   
530.000000	3.774000   
530.500000	3.925000   
531.000000	3.803000   
531.500000	3.915000   
532.000000	3.680000   
532.500000	3.666000   
533.000000	4.030000   
533.500000	3.846000   
534.000000	3.628000   
534.500000	3.162000   
535.000000	3.256000   
535.500000	3.625000   
536.000000	3.359000   
536.500000	3.390000   
537.000000	3.540000   
537.500000	3.337000   
538.000000	3.390000   
538.500000	3.516000   
539.000000	3.617000   
539.500000	3.186000   
540.000000	2.983000   
540.500000	2.977000   
541.000000	3.241000   
541.500000	3.234000   
542.000000	3.208000   
542.500000	3.280000   
543.000000	3.359000   
543.500000	3.474000   
544.000000	3.418000   
544.500000	3.216000   
545.000000	3.058000   
545.500000	3.160000   
546.000000	3.211000   
546.500000	3.159000   
547.000000	3.216000   
547.500000	3.234000   
548.000000	3.304000   
548.500000	3.542000   

