PE FL                   SPECTRUM    ASCII       PEDS        1.60        
  -1
01490F~1.SP
19/01/24
13:38:03.00
19/01/24
13:38:03.00


548.500000
1









LS45
505.00
10.00
10.00
SCAN
1
16
100
100
0
600
0
1
0
1
7
ON
550 545 
0 0 0
#HDR
-1
-1
#GR
NM
INT 
0.00002384185791015625
0.0
230.000000
0.500000
638
8
501.123000
0.016000
#DATA
230.000000	0.016000   
230.500000	0.045000   
231.000000	0.073000   
231.500000	0.029000   
232.000000	0.058000   
232.500000	0.090000   
233.000000	0.089000   
233.500000	0.096000   
234.000000	0.085000   
234.500000	0.103000   
235.000000	0.126000   
235.500000	0.147000   
236.000000	0.237000   
236.500000	0.174000   
237.000000	0.266000   
237.500000	0.328000   
238.000000	0.442000   
238.500000	0.388000   
239.000000	0.493000   
239.500000	0.671000   
240.000000	0.741000   
240.500000	0.930000   
241.000000	1.015000   
241.500000	1.259000   
242.000000	1.334000   
242.500000	1.523000   
243.000000	1.506000   
243.500000	1.935000   
244.000000	2.118000   
244.500000	2.311000   
245.000000	2.513000   
245.500000	2.670000   
246.000000	2.846000   
246.500000	3.021000   
247.000000	3.203000   
247.500000	3.150000   
248.000000	3.498000   
248.500000	3.370000   
249.000000	3.667000   
249.500000	3.542000   
250.000000	3.378000   
250.500000	3.518000   
251.000000	3.662000   
251.500000	3.459000   
252.000000	3.164000   
252.500000	3.094000   
253.000000	3.156000   
253.500000	2.977000   
254.000000	2.559000   
254.500000	2.270000   
255.000000	2.346000   
255.500000	2.281000   
256.000000	2.211000   
256.500000	1.866000   
257.000000	1.544000   
257.500000	1.543000   
258.000000	1.296000   
258.500000	1.060000   
259.000000	1.098000   
259.500000	0.989000   
260.000000	0.827000   
260.500000	0.621000   
261.000000	0.562999   
261.500000	0.516000   
262.000000	0.512000   
262.500000	0.608000   
263.000000	0.556000   
263.500000	0.493000   
264.000000	0.492000   
264.500000	0.511000   
265.000000	0.563999   
265.500000	0.576000   
266.000000	0.638000   
266.500000	0.664000   
267.000000	0.749000   
267.500000	0.810000   
268.000000	0.825000   
268.500000	0.782000   
269.000000	0.902000   
269.500000	0.983000   
270.000000	1.124000   
270.500000	1.052000   
271.000000	1.064000   
271.500000	1.166000   
272.000000	1.086000   
272.500000	1.205000   
273.000000	1.083000   
273.500000	1.079000   
274.000000	0.991000   
274.500000	1.064000   
275.000000	1.071000   
275.500000	1.119000   
276.000000	1.032000   
276.500000	0.840000   
277.000000	0.896000   
277.500000	0.896000   
278.000000	0.782000   
278.500000	0.762000   
279.000000	0.603000   
279.500000	0.540000   
280.000000	0.503000   
280.500000	0.534000   
281.000000	0.480000   
281.500000	0.423000   
282.000000	0.363000   
282.500000	0.324000   
283.000000	0.446000   
283.500000	0.333000   
284.000000	0.254000   
284.500000	0.237000   
285.000000	0.210000   
285.500000	0.140000   
286.000000	0.120000   
286.500000	0.135000   
287.000000	0.143000   
287.500000	0.142000   
288.000000	0.144000   
288.500000	0.120000   
289.000000	0.147000   
289.500000	0.192000   
290.000000	0.169000   
290.500000	0.288000   
291.000000	0.207000   
291.500000	0.163000   
292.000000	0.211000   
292.500000	0.189000   
293.000000	0.222000   
293.500000	0.227000   
294.000000	0.269000   
294.500000	0.256000   
295.000000	0.258000   
295.500000	0.204000   
296.000000	0.308000   
296.500000	0.240000   
297.000000	0.218000   
297.500000	0.273000   
298.000000	0.327000   
298.500000	0.283000   
299.000000	0.177000   
299.500000	0.292000   
300.000000	0.207000   
300.500000	0.321000   
301.000000	0.363000   
301.500000	0.339000   
302.000000	0.372000   
302.500000	0.338000   
303.000000	0.410000   
303.500000	0.349000   
304.000000	0.358000   
304.500000	0.358000   
305.000000	0.368000   
305.500000	0.313000   
306.000000	0.414000   
306.500000	0.316000   
307.000000	0.331000   
307.500000	0.370000   
308.000000	0.359000   
308.500000	0.290000   
309.000000	0.362000   
309.500000	0.419000   
310.000000	0.485000   
310.500000	0.428000   
311.000000	0.502000   
311.500000	0.461000   
312.000000	0.461000   
312.500000	0.417000   
313.000000	0.402000   
313.500000	0.433000   
314.000000	0.555000   
314.500000	0.453000   
315.000000	0.687999   
315.500000	0.566999   
316.000000	0.470000   
316.500000	0.545000   
317.000000	0.622000   
317.500000	0.588000   
318.000000	0.518000   
318.500000	0.618000   
319.000000	0.672000   
319.500000	0.674000   
320.000000	0.675000   
320.500000	0.708000   
321.000000	0.614000   
321.500000	0.704000   
322.000000	0.605000   
322.500000	0.698000   
323.000000	0.696000   
323.500000	0.841000   
324.000000	0.843000   
324.500000	0.799000   
325.000000	0.867000   
325.500000	0.752000   
326.000000	0.896000   
326.500000	0.827000   
327.000000	0.891000   
327.500000	1.019000   
328.000000	0.863000   
328.500000	1.019000   
329.000000	0.946000   
329.500000	1.016000   
330.000000	1.086000   
330.500000	0.976000   
331.000000	1.122000   
331.500000	1.041000   
332.000000	1.053000   
332.500000	1.139000   
333.000000	1.306000   
333.500000	1.288000   
334.000000	1.169000   
334.500000	1.122000   
335.000000	1.176000   
335.500000	1.273000   
336.000000	1.456000   
336.500000	1.335000   
337.000000	1.309000   
337.500000	1.378000   
338.000000	1.588000   
338.500000	1.637000   
339.000000	1.537000   
339.500000	1.380000   
340.000000	1.473000   
340.500000	1.452000   
341.000000	1.621000   
341.500000	1.476000   
342.000000	1.551000   
342.500000	1.777000   
343.000000	1.785000   
343.500000	1.626000   
344.000000	1.700000   
344.500000	1.649000   
345.000000	1.763000   
345.500000	1.784000   
346.000000	1.501000   
346.500000	1.760000   
347.000000	1.977000   
347.500000	1.848000   
348.000000	1.832000   
348.500000	1.802000   
349.000000	1.807000   
349.500000	1.789000   
350.000000	1.751000   
350.500000	1.898000   
351.000000	2.144000   
351.500000	1.893000   
352.000000	2.010000   
352.500000	2.046000   
353.000000	1.977000   
353.500000	1.928000   
354.000000	2.044000   
354.500000	1.978000   
355.000000	2.132000   
355.500000	2.108000   
356.000000	2.192000   
356.500000	2.218000   
357.000000	2.024000   
357.500000	2.279000   
358.000000	1.893000   
358.500000	2.090000   
359.000000	2.165000   
359.500000	2.064000   
360.000000	2.281000   
360.500000	2.283000   
361.000000	1.846000   
361.500000	2.133000   
362.000000	2.174000   
362.500000	2.076000   
363.000000	2.211000   
363.500000	2.181000   
364.000000	1.930000   
364.500000	2.047000   
365.000000	1.928000   
365.500000	2.208000   
366.000000	2.252000   
366.500000	2.329000   
367.000000	2.418000   
367.500000	2.155000   
368.000000	2.194000   
368.500000	2.213000   
369.000000	2.091000   
369.500000	2.088000   
370.000000	2.162000   
370.500000	1.931000   
371.000000	2.136000   
371.500000	2.367000   
372.000000	2.010000   
372.500000	2.059000   
373.000000	2.300000   
373.500000	2.312000   
374.000000	2.244000   
374.500000	2.167000   
375.000000	2.096000   
375.500000	2.156000   
376.000000	1.970000   
376.500000	2.287000   
377.000000	2.285000   
377.500000	1.911000   
378.000000	2.198000   
378.500000	2.034000   
379.000000	2.292000   
379.500000	2.435000   
380.000000	2.172000   
380.500000	2.178000   
381.000000	2.174000   
381.500000	2.168000   
382.000000	2.235000   
382.500000	1.931000   
383.000000	1.919000   
383.500000	1.996000   
384.000000	2.059000   
384.500000	2.068000   
385.000000	2.329000   
385.500000	2.128000   
386.000000	1.970000   
386.500000	2.134000   
387.000000	1.985000   
387.500000	2.030000   
388.000000	2.103000   
388.500000	2.148000   
389.000000	2.281000   
389.500000	2.072000   
390.000000	1.884000   
390.500000	1.979000   
391.000000	1.848000   
391.500000	1.882000   
392.000000	2.017000   
392.500000	2.069000   
393.000000	1.984000   
393.500000	1.886000   
394.000000	1.868000   
394.500000	1.904000   
395.000000	2.016000   
395.500000	1.768000   
396.000000	1.710000   
396.500000	1.931000   
397.000000	2.051000   
397.500000	1.916000   
398.000000	1.932000   
398.500000	2.117000   
399.000000	1.978000   
399.500000	1.971000   
400.000000	1.892000   
400.500000	2.189000   
401.000000	2.030000   
401.500000	1.825000   
402.000000	1.895000   
402.500000	1.915000   
403.000000	2.152000   
403.500000	1.967000   
404.000000	1.988000   
404.500000	1.961000   
405.000000	1.911000   
405.500000	2.034000   
406.000000	1.845000   
406.500000	1.934000   
407.000000	2.128000   
407.500000	1.876000   
408.000000	2.094000   
408.500000	2.111000   
409.000000	1.866000   
409.500000	1.991000   
410.000000	1.964000   
410.500000	2.076000   
411.000000	2.074000   
411.500000	1.967000   
412.000000	2.019000   
412.500000	2.068000   
413.000000	1.884000   
413.500000	2.135000   
414.000000	2.069000   
414.500000	2.025000   
415.000000	1.936000   
415.500000	2.074000   
416.000000	2.014000   
416.500000	2.045000   
417.000000	2.082000   
417.500000	2.219000   
418.000000	2.207000   
418.500000	1.951000   
419.000000	2.094000   
419.500000	2.132000   
420.000000	1.974000   
420.500000	2.037000   
421.000000	2.105000   
421.500000	2.176000   
422.000000	2.409000   
422.500000	2.251000   
423.000000	2.215000   
423.500000	2.119000   
424.000000	2.237000   
424.500000	2.074000   
425.000000	2.234000   
425.500000	2.076000   
426.000000	2.161000   
426.500000	2.257000   
427.000000	2.273000   
427.500000	1.999000   
428.000000	2.114000   
428.500000	2.307000   
429.000000	2.231000   
429.500000	2.257000   
430.000000	2.288000   
430.500000	2.359000   
431.000000	2.161000   
431.500000	2.458000   
432.000000	2.706000   
432.500000	2.410000   
433.000000	2.352000   
433.500000	2.257000   
434.000000	2.512000   
434.500000	2.408000   
435.000000	2.412000   
435.500000	2.283000   
436.000000	2.494000   
436.500000	2.724000   
437.000000	2.474000   
437.500000	2.530000   
438.000000	2.434000   
438.500000	2.402000   
439.000000	2.879000   
439.500000	2.760000   
440.000000	2.604000   
440.500000	2.641000   
441.000000	2.451000   
441.500000	2.576000   
442.000000	2.759000   
442.500000	2.642000   
443.000000	2.737000   
443.500000	2.943000   
444.000000	2.928000   
444.500000	2.788000   
445.000000	2.574000   
445.500000	2.712000   
446.000000	2.849000   
446.500000	2.778000   
447.000000	2.567000   
447.500000	2.575000   
448.000000	2.998000   
448.500000	3.034000   
449.000000	3.043000   
449.500000	2.897000   
450.000000	2.902000   
450.500000	2.753000   
451.000000	2.798000   
451.500000	3.032000   
452.000000	2.736000   
452.500000	2.747000   
453.000000	2.818000   
453.500000	2.512000   
454.000000	2.708000   
454.500000	2.680000   
455.000000	2.849000   
455.500000	2.886000   
456.000000	2.835000   
456.500000	3.000000   
457.000000	2.889000   
457.500000	2.842000   
458.000000	2.903000   
458.500000	2.957000   
459.000000	2.804000   
459.500000	2.946000   
460.000000	2.763000   
460.500000	2.800000   
461.000000	3.159000   
461.500000	3.060000   
462.000000	2.976000   
462.500000	2.938000   
463.000000	2.887000   
463.500000	2.690000   
464.000000	2.553000   
464.500000	2.533000   
465.000000	2.917000   
465.500000	2.730000   
466.000000	2.827000   
466.500000	3.067000   
467.000000	2.839000   
467.500000	3.018000   
468.000000	2.930000   
468.500000	2.816000   
469.000000	3.051000   
469.500000	3.011000   
470.000000	2.936000   
470.500000	3.101000   
471.000000	2.975000   
471.500000	3.102000   
472.000000	2.980000   
472.500000	2.956000   
473.000000	2.968000   
473.500000	3.017000   
474.000000	3.086000   
474.500000	3.271000   
475.000000	3.131000   
475.500000	3.390000   
476.000000	3.149000   
476.500000	3.193000   
477.000000	3.357000   
477.500000	3.380000   
478.000000	3.522000   
478.500000	3.386000   
479.000000	3.947000   
479.500000	3.817000   
480.000000	3.949000   
480.500000	4.233000   
481.000000	4.646000   
481.500000	4.836000   
482.000000	5.447000   
482.500000	6.538000   
483.000000	7.653000   
483.500000	9.863000   
484.000000	11.671000  
484.500000	14.770000  
485.000000	18.522000  
485.500000	23.328000  
486.000000	28.002000  
486.500000	35.902000  
487.000000	42.471000  
487.500000	52.597000  
488.000000	60.724000  
488.500000	72.947000  
489.000000	86.674000  
489.500000	101.192000 
490.000000	114.852000 
490.500000	134.603000 
491.000000	154.277000 
491.500000	177.500000 
492.000000	195.073000 
492.500000	218.296000 
493.000000	240.223000 
493.500000	272.057000 
494.000000	293.562000 
494.500000	319.708000 
495.000000	338.520000 
495.500000	362.307000 
496.000000	382.235000 
496.500000	405.204000 
497.000000	427.955000 
497.500000	447.315000 
498.000000	457.727000 
498.500000	470.295000 
499.000000	478.957000 
499.500000	485.457000 
500.000000	493.071000 
500.500000	496.857000 
501.000000	501.123000 
501.500000	499.165000 
502.000000	492.108000 
502.500000	484.505000 
503.000000	477.538000 
503.500000	471.608000 
504.000000	453.367000 
504.500000	438.794000 
505.000000	419.542000 
505.500000	401.661000 
506.000000	379.065000 
506.500000	358.660000 
507.000000	333.451000 
507.500000	305.700000 
508.000000	283.873000 
508.500000	263.563000 
509.000000	235.145000 
509.500000	216.177000 
510.000000	186.713000 
510.500000	169.325000 
511.000000	148.402000 
511.500000	132.904000 
512.000000	113.419000 
512.500000	98.746000  
513.000000	81.506000  
513.500000	72.084999  
514.000000	58.705000  
514.500000	49.256000  
515.000000	38.285000  
515.500000	32.833000  
516.000000	25.343000  
516.500000	21.203000  
517.000000	15.216000  
517.500000	12.594000  
518.000000	10.124000  
518.500000	8.016000   
519.000000	6.529000   
519.500000	5.786000   
520.000000	4.764000   
520.500000	4.192000   
521.000000	3.833000   
521.500000	3.714000   
522.000000	3.176000   
522.500000	3.170000   
523.000000	2.687000   
523.500000	2.993000   
524.000000	2.965000   
524.500000	2.729000   
525.000000	2.834000   
525.500000	2.820000   
526.000000	2.631000   
526.500000	2.730000   
527.000000	2.472000   
527.500000	2.562000   
528.000000	2.506000   
528.500000	2.615000   
529.000000	2.394000   
529.500000	2.500000   
530.000000	2.629000   
530.500000	2.481000   
531.000000	2.541000   
531.500000	2.654000   
532.000000	2.599000   
532.500000	2.425000   
533.000000	2.337000   
533.500000	2.389000   
534.000000	2.593000   
534.500000	2.564000   
535.000000	2.625000   
535.500000	2.618000   
536.000000	2.632000   
536.500000	2.752000   
537.000000	2.837000   
537.500000	2.950000   
538.000000	3.200000   
538.500000	3.065000   
539.000000	3.170000   
539.500000	3.295000   
540.000000	3.175000   
540.500000	3.318000   
541.000000	3.677000   
541.500000	3.751000   
542.000000	3.587000   
542.500000	3.650000   
543.000000	3.591000   
543.500000	3.616000   
544.000000	3.793000   
544.500000	3.719000   
545.000000	3.761000   
545.500000	3.758000   
546.000000	4.133000   
546.500000	3.831000   
547.000000	3.696000   
547.500000	3.623000   
548.000000	3.564000   
548.500000	3.317000   

