PE FL                   SPECTRUM    ASCII       PEDS        1.60        
  -1
014107~1.SP
19/01/24
13:21:27.00
19/01/24
13:21:27.00


548.500000
1









LS45
395.00
10.00
10.00
SCAN
1
16
100
100
0
600
0
1
0
1
7
ON
550 545 
0 0 0
#HDR
-1
-1
#GR
NM
INT 
0.00002384185791015625
0.0
230.000000
0.500000
638
8
999.999000
0.250000
#DATA
230.000000	0.574000   
230.500000	0.360000   
231.000000	0.396000   
231.500000	0.365000   
232.000000	0.400000   
232.500000	0.337000   
233.000000	0.408000   
233.500000	0.372000   
234.000000	0.390000   
234.500000	0.393000   
235.000000	0.359000   
235.500000	0.397000   
236.000000	0.371000   
236.500000	0.301000   
237.000000	0.315000   
237.500000	0.301000   
238.000000	0.278000   
238.500000	0.331000   
239.000000	0.324000   
239.500000	0.250000   
240.000000	0.330000   
240.500000	0.321000   
241.000000	0.296000   
241.500000	0.326000   
242.000000	0.319000   
242.500000	0.278000   
243.000000	0.295000   
243.500000	0.322000   
244.000000	0.268000   
244.500000	0.258000   
245.000000	0.283000   
245.500000	0.273000   
246.000000	0.285000   
246.500000	0.355000   
247.000000	0.409000   
247.500000	0.287000   
248.000000	0.373000   
248.500000	0.295000   
249.000000	0.308000   
249.500000	0.278000   
250.000000	0.404000   
250.500000	0.377000   
251.000000	0.390000   
251.500000	0.308000   
252.000000	0.297000   
252.500000	0.362000   
253.000000	0.342000   
253.500000	0.354000   
254.000000	0.358000   
254.500000	0.382000   
255.000000	0.388000   
255.500000	0.406000   
256.000000	0.419000   
256.500000	0.343000   
257.000000	0.385000   
257.500000	0.301000   
258.000000	0.307000   
258.500000	0.430000   
259.000000	0.356000   
259.500000	0.350000   
260.000000	0.329000   
260.500000	0.437000   
261.000000	0.371000   
261.500000	0.438000   
262.000000	0.342000   
262.500000	0.386000   
263.000000	0.327000   
263.500000	0.400000   
264.000000	0.448000   
264.500000	0.458000   
265.000000	0.393000   
265.500000	0.428000   
266.000000	0.304000   
266.500000	0.428000   
267.000000	0.347000   
267.500000	0.358000   
268.000000	0.415000   
268.500000	0.516000   
269.000000	0.461000   
269.500000	0.396000   
270.000000	0.525000   
270.500000	0.451000   
271.000000	0.491000   
271.500000	0.521000   
272.000000	0.361000   
272.500000	0.388000   
273.000000	0.412000   
273.500000	0.458000   
274.000000	0.468000   
274.500000	0.360000   
275.000000	0.482000   
275.500000	0.508000   
276.000000	0.405000   
276.500000	0.432000   
277.000000	0.454000   
277.500000	0.419000   
278.000000	0.423000   
278.500000	0.435000   
279.000000	0.443000   
279.500000	0.482000   
280.000000	0.489000   
280.500000	0.477000   
281.000000	0.425000   
281.500000	0.465000   
282.000000	0.483000   
282.500000	0.451000   
283.000000	0.424000   
283.500000	0.483000   
284.000000	0.465000   
284.500000	0.491000   
285.000000	0.582000   
285.500000	0.461000   
286.000000	0.575000   
286.500000	0.534000   
287.000000	0.527000   
287.500000	0.544000   
288.000000	0.571000   
288.500000	0.527000   
289.000000	0.482000   
289.500000	0.519000   
290.000000	0.650000   
290.500000	0.563999   
291.000000	0.466000   
291.500000	0.560000   
292.000000	0.547000   
292.500000	0.619000   
293.000000	0.616000   
293.500000	0.576000   
294.000000	0.498000   
294.500000	0.658000   
295.000000	0.616000   
295.500000	0.656000   
296.000000	0.612000   
296.500000	0.561000   
297.000000	0.559000   
297.500000	0.613000   
298.000000	0.609000   
298.500000	0.735000   
299.000000	0.622000   
299.500000	0.668000   
300.000000	0.723000   
300.500000	0.691999   
301.000000	0.589000   
301.500000	0.673000   
302.000000	0.658000   
302.500000	0.802000   
303.000000	0.733000   
303.500000	0.727000   
304.000000	0.652000   
304.500000	0.686000   
305.000000	0.591000   
305.500000	0.657000   
306.000000	0.685000   
306.500000	0.740000   
307.000000	0.623000   
307.500000	0.753000   
308.000000	0.794000   
308.500000	0.850000   
309.000000	0.785000   
309.500000	0.799000   
310.000000	0.865000   
310.500000	0.876000   
311.000000	0.781000   
311.500000	0.812999   
312.000000	0.792000   
312.500000	0.743000   
313.000000	0.856000   
313.500000	0.830000   
314.000000	0.995000   
314.500000	0.989000   
315.000000	0.935000   
315.500000	0.859000   
316.000000	0.859000   
316.500000	0.948000   
317.000000	0.972000   
317.500000	0.859000   
318.000000	0.839000   
318.500000	0.881000   
319.000000	0.940999   
319.500000	0.926000   
320.000000	0.891000   
320.500000	0.936000   
321.000000	1.020000   
321.500000	0.972000   
322.000000	1.019000   
322.500000	0.831000   
323.000000	0.953000   
323.500000	0.981000   
324.000000	1.139000   
324.500000	1.179000   
325.000000	1.203000   
325.500000	1.218000   
326.000000	1.070000   
326.500000	1.091000   
327.000000	1.169000   
327.500000	1.252000   
328.000000	1.119000   
328.500000	1.095000   
329.000000	1.085000   
329.500000	1.054000   
330.000000	1.126000   
330.500000	1.160000   
331.000000	1.233000   
331.500000	1.325000   
332.000000	1.235000   
332.500000	1.449000   
333.000000	1.461000   
333.500000	1.506000   
334.000000	1.431000   
334.500000	1.324000   
335.000000	1.427000   
335.500000	1.519000   
336.000000	1.367000   
336.500000	1.543000   
337.000000	1.600000   
337.500000	1.481000   
338.000000	1.732000   
338.500000	1.601000   
339.000000	1.677000   
339.500000	1.814000   
340.000000	1.919000   
340.500000	1.700000   
341.000000	1.743000   
341.500000	1.842000   
342.000000	1.922000   
342.500000	1.830000   
343.000000	1.881000   
343.500000	1.957000   
344.000000	2.001000   
344.500000	2.286000   
345.000000	2.273000   
345.500000	2.228000   
346.000000	2.206000   
346.500000	2.259000   
347.000000	2.269000   
347.500000	2.512000   
348.000000	2.324000   
348.500000	2.250000   
349.000000	2.381000   
349.500000	2.858000   
350.000000	2.803000   
350.500000	2.669000   
351.000000	2.624000   
351.500000	3.102000   
352.000000	3.075000   
352.500000	2.959000   
353.000000	2.850000   
353.500000	3.039000   
354.000000	3.194000   
354.500000	3.296000   
355.000000	3.545000   
355.500000	3.511000   
356.000000	3.600000   
356.500000	3.863000   
357.000000	3.615000   
357.500000	3.650000   
358.000000	3.742000   
358.500000	4.239000   
359.000000	4.174000   
359.500000	4.231000   
360.000000	4.554000   
360.500000	4.213000   
361.000000	4.348000   
361.500000	4.348000   
362.000000	4.403000   
362.500000	5.029000   
363.000000	5.085000   
363.500000	5.362000   
364.000000	5.275000   
364.500000	5.021000   
365.000000	5.676000   
365.500000	5.721000   
366.000000	5.617000   
366.500000	5.933000   
367.000000	6.026000   
367.500000	6.187000   
368.000000	6.188000   
368.500000	6.483000   
369.000000	6.832000   
369.500000	7.427000   
370.000000	7.962000   
370.500000	8.659000   
371.000000	9.507000   
371.500000	11.130000  
372.000000	13.077000  
372.500000	16.172000  
373.000000	20.264000  
373.500000	26.475000  
374.000000	35.269000  
374.500000	45.193000  
375.000000	55.275000  
375.500000	71.546000  
376.000000	88.998000  
376.500000	112.476000 
377.000000	136.790000 
377.500000	171.427000 
378.000000	200.016000 
378.500000	244.746000 
379.000000	280.853000 
379.500000	335.190000 
380.000000	378.843000 
380.500000	440.899000 
381.000000	552.771000 
381.500000	565.267000 
382.000000	627.672000 
382.500000	755.081000 
383.000000	767.657000 
383.500000	889.456000 
384.000000	899.601000 
384.500000	999.999000 
385.000000	999.999000 
385.500000	999.999000 
386.000000	999.999000 
386.500000	999.999000 
387.000000	999.999000 
387.500000	999.999000 
388.000000	999.999000 
388.500000	999.999000 
389.000000	999.999000 
389.500000	999.999000 
390.000000	999.999000 
390.500000	999.999000 
391.000000	999.999000 
391.500000	999.999000 
392.000000	999.999000 
392.500000	999.999000 
393.000000	999.999000 
393.500000	999.999000 
394.000000	999.999000 
394.500000	999.999000 
395.000000	999.999000 
395.500000	999.999000 
396.000000	999.999000 
396.500000	999.999000 
397.000000	999.999000 
397.500000	999.999000 
398.000000	993.739000 
398.500000	983.224000 
399.000000	864.006999 
399.500000	851.342000 
400.000000	726.408000 
400.500000	650.590000 
401.000000	638.226000 
401.500000	514.716000 
402.000000	502.529000 
402.500000	441.015000 
403.000000	380.863000 
403.500000	333.023000 
404.000000	279.808000 
404.500000	243.396000 
405.000000	199.902000 
405.500000	169.959000 
406.000000	137.168000 
406.500000	113.787000 
407.000000	92.333000  
407.500000	75.974999  
408.000000	61.398000  
408.500000	47.881000  
409.000000	37.851000  
409.500000	32.246000  
410.000000	27.587000  
410.500000	22.843000  
411.000000	21.042000  
411.500000	19.516000  
412.000000	18.624000  
412.500000	18.076000  
413.000000	17.697000  
413.500000	17.600000  
414.000000	18.509000  
414.500000	18.664000  
415.000000	18.629000  
415.500000	18.949000  
416.000000	18.643000  
416.500000	19.269000  
417.000000	19.382000  
417.500000	20.502000  
418.000000	20.454000  
418.500000	20.810000  
419.000000	21.254000  
419.500000	21.520000  
420.000000	22.920000  
420.500000	23.052000  
421.000000	23.467000  
421.500000	23.805000  
422.000000	23.008000  
422.500000	23.642000  
423.000000	24.355000  
423.500000	24.914000  
424.000000	25.261000  
424.500000	26.032000  
425.000000	26.520000  
425.500000	26.817000  
426.000000	26.660000  
426.500000	27.722000  
427.000000	29.031000  
427.500000	28.533000  
428.000000	29.681000  
428.500000	29.348000  
429.000000	29.908000  
429.500000	30.548000  
430.000000	30.030000  
430.500000	31.396000  
431.000000	32.795000  
431.500000	33.368000  
432.000000	34.304000  
432.500000	33.583000  
433.000000	34.886000  
433.500000	36.169000  
434.000000	35.605000  
434.500000	37.779000  
435.000000	38.981000  
435.500000	39.536000  
436.000000	39.486000  
436.500000	40.435000  
437.000000	41.595000  
437.500000	41.863000  
438.000000	43.908000  
438.500000	45.172000  
439.000000	46.518000  
439.500000	47.837000  
440.000000	48.136000  
440.500000	48.660000  
441.000000	50.172000  
441.500000	51.654000  
442.000000	54.067000  
442.500000	53.870000  
443.000000	54.259000  
443.500000	56.569000  
444.000000	57.690000  
444.500000	59.530000  
445.000000	60.233000  
445.500000	60.416000  
446.000000	62.535000  
446.500000	63.930000  
447.000000	64.399000  
447.500000	65.392000  
448.000000	66.529000  
448.500000	67.087999  
449.000000	67.133000  
449.500000	67.306000  
450.000000	68.244000  
450.500000	68.436000  
451.000000	68.569000  
451.500000	68.905000  
452.000000	67.950999  
452.500000	69.111000  
453.000000	69.162000  
453.500000	67.970000  
454.000000	66.264000  
454.500000	66.758000  
455.000000	65.309000  
455.500000	64.744000  
456.000000	64.221999  
456.500000	62.624000  
457.000000	62.875000  
457.500000	61.525000  
458.000000	61.861000  
458.500000	59.881000  
459.000000	58.618000  
459.500000	57.771000  
460.000000	58.101000  
460.500000	57.157000  
461.000000	54.989000  
461.500000	54.279000  
462.000000	52.756000  
462.500000	52.693000  
463.000000	50.776000  
463.500000	50.314000  
464.000000	49.393000  
464.500000	49.760000  
465.000000	48.564000  
465.500000	47.360000  
466.000000	47.969000  
466.500000	47.207000  
467.000000	46.138000  
467.500000	45.838000  
468.000000	45.109000  
468.500000	44.402000  
469.000000	43.016000  
469.500000	43.367000  
470.000000	43.482000  
470.500000	43.866000  
471.000000	43.455000  
471.500000	42.388000  
472.000000	42.132000  
472.500000	42.485000  
473.000000	42.426000  
473.500000	41.127000  
474.000000	41.389000  
474.500000	41.470000  
475.000000	41.674000  
475.500000	40.693000  
476.000000	40.352000  
476.500000	40.328000  
477.000000	40.691000  
477.500000	40.281000  
478.000000	40.810000  
478.500000	39.869000  
479.000000	40.853000  
479.500000	39.920000  
480.000000	39.079000  
480.500000	39.568000  
481.000000	38.754000  
481.500000	39.191000  
482.000000	38.968000  
482.500000	38.551000  
483.000000	37.940000  
483.500000	38.511000  
484.000000	39.336000  
484.500000	37.694000  
485.000000	38.713000  
485.500000	37.138000  
486.000000	37.364000  
486.500000	37.177000  
487.000000	36.506000  
487.500000	37.190000  
488.000000	35.948000  
488.500000	36.360000  
489.000000	36.681000  
489.500000	35.777000  
490.000000	35.986000  
490.500000	36.125000  
491.000000	35.319000  
491.500000	34.584000  
492.000000	34.604000  
492.500000	34.798000  
493.000000	34.508000  
493.500000	34.740000  
494.000000	33.861000  
494.500000	33.992000  
495.000000	33.366000  
495.500000	33.572000  
496.000000	33.436000  
496.500000	33.696000  
497.000000	33.346000  
497.500000	32.366000  
498.000000	32.478000  
498.500000	31.782000  
499.000000	32.132000  
499.500000	31.703000  
500.000000	32.151000  
500.500000	32.104000  
501.000000	31.334000  
501.500000	30.504000  
502.000000	31.073000  
502.500000	30.275000  
503.000000	30.230000  
503.500000	29.718000  
504.000000	30.167000  
504.500000	29.842000  
505.000000	29.890000  
505.500000	29.914000  
506.000000	29.562000  
506.500000	29.702000  
507.000000	28.617000  
507.500000	27.744000  
508.000000	27.942000  
508.500000	27.679000  
509.000000	27.573000  
509.500000	26.708000  
510.000000	26.707000  
510.500000	25.947000  
511.000000	26.494000  
511.500000	26.156000  
512.000000	27.159000  
512.500000	26.083000  
513.000000	26.155000  
513.500000	25.720000  
514.000000	26.133000  
514.500000	25.184000  
515.000000	25.478000  
515.500000	24.685000  
516.000000	24.161000  
516.500000	23.931000  
517.000000	23.998000  
517.500000	23.163000  
518.000000	22.453000  
518.500000	23.230000  
519.000000	22.443000  
519.500000	22.471000  
520.000000	22.476000  
520.500000	21.995000  
521.000000	21.714000  
521.500000	21.806000  
522.000000	21.606000  
522.500000	20.791000  
523.000000	21.587000  
523.500000	21.157000  
524.000000	20.690000  
524.500000	20.465000  
525.000000	20.288000  
525.500000	19.484000  
526.000000	19.480000  
526.500000	18.922000  
527.000000	18.667000  
527.500000	19.539000  
528.000000	19.792000  
528.500000	19.178000  
529.000000	17.874000  
529.500000	18.216000  
530.000000	18.489000  
530.500000	17.784000  
531.000000	17.234000  
531.500000	17.539000  
532.000000	17.471000  
532.500000	16.936000  
533.000000	16.235000  
533.500000	16.792000  
534.000000	16.485000  
534.500000	16.185000  
535.000000	15.867000  
535.500000	15.693000  
536.000000	15.327000  
536.500000	15.581000  
537.000000	15.694000  
537.500000	15.347000  
538.000000	14.559000  
538.500000	14.692000  
539.000000	14.128000  
539.500000	13.118000  
540.000000	13.412000  
540.500000	13.855000  
541.000000	13.343000  
541.500000	13.295000  
542.000000	13.004000  
542.500000	12.720000  
543.000000	12.344000  
543.500000	12.258000  
544.000000	12.555000  
544.500000	11.785000  
545.000000	12.295000  
545.500000	11.716000  
546.000000	11.898000  
546.500000	11.463000  
547.000000	11.252000  
547.500000	10.932000  
548.000000	11.065000  
548.500000	10.932000  

