PE FL                   SPECTRUM    ASCII       PEDS        1.60        
  -1
015DFA~1.SP
19/01/24
13:16:10.00
19/01/24
13:16:10.00


548.500000
1









LS45
360.00
10.00
10.00
SCAN
1
16
100
100
0
600
0
1
0
1
7
ON
550 545 
0 0 0
#HDR
-1
-1
#GR
NM
INT 
0.00002384185791015625
0.0
230.000000
0.500000
638
8
999.999000
0.369000
#DATA
230.000000	0.435000   
230.500000	0.422000   
231.000000	0.531000   
231.500000	0.450000   
232.000000	0.480000   
232.500000	0.565999   
233.000000	0.458000   
233.500000	0.453000   
234.000000	0.369000   
234.500000	0.444000   
235.000000	0.431000   
235.500000	0.619000   
236.000000	0.433000   
236.500000	0.371000   
237.000000	0.476000   
237.500000	0.526000   
238.000000	0.446000   
238.500000	0.390000   
239.000000	0.402000   
239.500000	0.533000   
240.000000	0.613000   
240.500000	0.427000   
241.000000	0.472000   
241.500000	0.533000   
242.000000	0.487000   
242.500000	0.575000   
243.000000	0.554000   
243.500000	0.566999   
244.000000	0.509000   
244.500000	0.415000   
245.000000	0.536000   
245.500000	0.507000   
246.000000	0.580000   
246.500000	0.590000   
247.000000	0.499000   
247.500000	0.512000   
248.000000	0.496000   
248.500000	0.560000   
249.000000	0.632000   
249.500000	0.587000   
250.000000	0.481000   
250.500000	0.527000   
251.000000	0.545000   
251.500000	0.512000   
252.000000	0.552000   
252.500000	0.645000   
253.000000	0.622000   
253.500000	0.690999   
254.000000	0.690999   
254.500000	0.637000   
255.000000	0.617000   
255.500000	0.552000   
256.000000	0.528000   
256.500000	0.584000   
257.000000	0.688999   
257.500000	0.650000   
258.000000	0.571000   
258.500000	0.595000   
259.000000	0.663000   
259.500000	0.564999   
260.000000	0.617000   
260.500000	0.650000   
261.000000	0.656000   
261.500000	0.639000   
262.000000	0.633000   
262.500000	0.579000   
263.000000	0.665000   
263.500000	0.742000   
264.000000	0.752000   
264.500000	0.635000   
265.000000	0.699000   
265.500000	0.697000   
266.000000	0.780000   
266.500000	0.705000   
267.000000	0.657000   
267.500000	0.529000   
268.000000	0.626000   
268.500000	0.801000   
269.000000	0.808000   
269.500000	0.731000   
270.000000	0.730000   
270.500000	0.626000   
271.000000	0.643000   
271.500000	0.609000   
272.000000	0.684000   
272.500000	0.846000   
273.000000	0.629000   
273.500000	0.687000   
274.000000	0.747000   
274.500000	0.756000   
275.000000	0.836000   
275.500000	0.739000   
276.000000	0.701000   
276.500000	0.844000   
277.000000	0.835000   
277.500000	0.802000   
278.000000	0.793000   
278.500000	0.912000   
279.000000	0.738000   
279.500000	0.700000   
280.000000	0.812999   
280.500000	0.979000   
281.000000	0.965000   
281.500000	0.926000   
282.000000	0.868000   
282.500000	0.834000   
283.000000	0.930000   
283.500000	0.850000   
284.000000	0.852000   
284.500000	0.940999   
285.000000	1.019000   
285.500000	0.900000   
286.000000	0.776000   
286.500000	0.880000   
287.000000	1.094000   
287.500000	1.004000   
288.000000	0.987000   
288.500000	1.074000   
289.000000	1.116000   
289.500000	0.962000   
290.000000	0.915000   
290.500000	1.073000   
291.000000	0.976000   
291.500000	1.042000   
292.000000	1.095000   
292.500000	1.224000   
293.000000	1.075000   
293.500000	1.080000   
294.000000	1.240000   
294.500000	1.080000   
295.000000	0.959000   
295.500000	1.085000   
296.000000	1.210000   
296.500000	1.153000   
297.000000	1.063000   
297.500000	1.030000   
298.000000	1.222000   
298.500000	1.435000   
299.000000	1.190000   
299.500000	1.171000   
300.000000	1.276000   
300.500000	1.384000   
301.000000	1.279000   
301.500000	1.457000   
302.000000	1.318000   
302.500000	1.449000   
303.000000	1.496000   
303.500000	1.417000   
304.000000	1.585000   
304.500000	1.521000   
305.000000	1.600000   
305.500000	1.620000   
306.000000	1.684000   
306.500000	1.748000   
307.000000	1.524000   
307.500000	1.659000   
308.000000	1.803000   
308.500000	1.859000   
309.000000	1.776000   
309.500000	1.976000   
310.000000	2.129000   
310.500000	2.109000   
311.000000	2.113000   
311.500000	2.056000   
312.000000	2.083000   
312.500000	2.312000   
313.000000	2.339000   
313.500000	2.495000   
314.000000	2.272000   
314.500000	2.236000   
315.000000	2.369000   
315.500000	2.432000   
316.000000	2.807000   
316.500000	2.656000   
317.000000	2.689000   
317.500000	2.896000   
318.000000	2.838000   
318.500000	2.922000   
319.000000	3.199000   
319.500000	3.192000   
320.000000	3.433000   
320.500000	3.018000   
321.000000	3.466000   
321.500000	3.622000   
322.000000	3.914000   
322.500000	3.848000   
323.000000	3.893000   
323.500000	4.145000   
324.000000	4.018000   
324.500000	4.296000   
325.000000	4.453000   
325.500000	4.552000   
326.000000	4.769000   
326.500000	5.094000   
327.000000	5.134000   
327.500000	5.165000   
328.000000	5.294000   
328.500000	5.531000   
329.000000	5.605000   
329.500000	5.781000   
330.000000	6.071000   
330.500000	6.648000   
331.000000	6.743000   
331.500000	6.982000   
332.000000	6.942000   
332.500000	7.142000   
333.000000	7.013000   
333.500000	7.461000   
334.000000	7.725000   
334.500000	7.825000   
335.000000	8.847000   
335.500000	9.837999   
336.000000	10.100000  
336.500000	11.850000  
337.000000	13.379000  
337.500000	16.785000  
338.000000	19.858000  
338.500000	26.618000  
339.000000	32.990000  
339.500000	42.884000  
340.000000	52.747000  
340.500000	68.282000  
341.000000	84.200000  
341.500000	104.559000 
342.000000	132.427000 
342.500000	163.591000 
343.000000	196.761000 
343.500000	231.128000 
344.000000	277.310000 
344.500000	323.113000 
345.000000	378.212000 
345.500000	497.238000 
346.000000	563.080000 
346.500000	639.917000 
347.000000	651.679999 
347.500000	794.296000 
348.000000	805.191000 
348.500000	943.292000 
349.000000	954.692000 
349.500000	999.999000 
350.000000	999.999000 
350.500000	999.999000 
351.000000	999.999000 
351.500000	999.999000 
352.000000	999.999000 
352.500000	999.999000 
353.000000	999.999000 
353.500000	999.999000 
354.000000	999.999000 
354.500000	999.999000 
355.000000	999.999000 
355.500000	999.999000 
356.000000	999.999000 
356.500000	999.999000 
357.000000	999.999000 
357.500000	999.999000 
358.000000	999.999000 
358.500000	999.999000 
359.000000	999.999000 
359.500000	999.999000 
360.000000	999.999000 
360.500000	999.999000 
361.000000	999.999000 
361.500000	999.999000 
362.000000	999.999000 
362.500000	999.999000 
363.000000	999.999000 
363.500000	996.676000 
364.000000	870.313000 
364.500000	799.280999 
365.000000	719.043000 
365.500000	644.099000 
366.000000	576.295000 
366.500000	502.509000 
367.000000	492.443000 
367.500000	377.318000 
368.000000	369.216000 
368.500000	324.702000 
369.000000	269.018000 
369.500000	229.834000 
370.000000	183.479000 
370.500000	155.659000 
371.000000	125.532000 
371.500000	103.780000 
372.000000	85.918000  
372.500000	72.860000  
373.000000	58.320000  
373.500000	46.136000  
374.000000	38.097000  
374.500000	33.142000  
375.000000	28.804000  
375.500000	26.503000  
376.000000	25.010000  
376.500000	23.981000  
377.000000	22.996000  
377.500000	22.173000  
378.000000	22.327000  
378.500000	22.278000  
379.000000	23.100000  
379.500000	23.204000  
380.000000	23.363000  
380.500000	24.269000  
381.000000	24.025000  
381.500000	23.793000  
382.000000	24.488000  
382.500000	25.587000  
383.000000	25.412000  
383.500000	24.696000  
384.000000	25.860000  
384.500000	26.847000  
385.000000	27.065000  
385.500000	27.324000  
386.000000	27.827000  
386.500000	28.240000  
387.000000	29.056000  
387.500000	29.933000  
388.000000	31.111000  
388.500000	31.596000  
389.000000	32.186000  
389.500000	33.666000  
390.000000	35.227000  
390.500000	36.314000  
391.000000	37.858000  
391.500000	38.863000  
392.000000	40.843000  
392.500000	41.648000  
393.000000	43.479000  
393.500000	45.817000  
394.000000	47.277000  
394.500000	49.750000  
395.000000	51.096000  
395.500000	53.979000  
396.000000	56.169000  
396.500000	59.600000  
397.000000	62.025000  
397.500000	64.668000  
398.000000	67.571000  
398.500000	70.337999  
399.000000	71.287000  
399.500000	73.468000  
400.000000	77.068000  
400.500000	79.902000  
401.000000	82.227999  
401.500000	84.927000  
402.000000	88.569999  
402.500000	89.518000  
403.000000	91.931000  
403.500000	92.711000  
404.000000	93.718999  
404.500000	96.798000  
405.000000	98.131000  
405.500000	98.498000  
406.000000	99.778000  
406.500000	99.991000  
407.000000	99.068000  
407.500000	100.876000 
408.000000	100.378000 
408.500000	99.212000  
409.000000	99.465999  
409.500000	99.635000  
410.000000	99.808000  
410.500000	99.930000  
411.000000	97.669000  
411.500000	95.288000  
412.000000	95.133000  
412.500000	94.511000  
413.000000	92.991000  
413.500000	90.575000  
414.000000	91.167000  
414.500000	89.137000  
415.000000	86.760000  
415.500000	85.586000  
416.000000	84.854000  
416.500000	82.133000  
417.000000	82.733999  
417.500000	78.925000  
418.000000	78.286000  
418.500000	77.370000  
419.000000	76.996000  
419.500000	75.629000  
420.000000	74.531000  
420.500000	74.660000  
421.000000	73.388000  
421.500000	73.622000  
422.000000	72.697999  
422.500000	73.608000  
423.000000	73.105999  
423.500000	72.078999  
424.000000	71.556000  
424.500000	71.400000  
425.000000	72.270000  
425.500000	71.916000  
426.000000	71.580000  
426.500000	71.683000  
427.000000	73.181000  
427.500000	73.599999  
428.000000	72.717000  
428.500000	72.947000  
429.000000	73.887000  
429.500000	75.321000  
430.000000	74.605999  
430.500000	75.587000  
431.000000	74.721000  
431.500000	74.649000  
432.000000	74.090999  
432.500000	74.072999  
433.000000	74.134000  
433.500000	75.819999  
434.000000	77.080000  
434.500000	78.546000  
435.000000	77.861999  
435.500000	77.798000  
436.000000	77.622000  
436.500000	78.227999  
437.000000	76.718000  
437.500000	77.897000  
438.000000	78.483999  
438.500000	77.879000  
439.000000	79.101000  
439.500000	80.489000  
440.000000	79.271000  
440.500000	79.153000  
441.000000	77.730000  
441.500000	78.128000  
442.000000	79.325000  
442.500000	77.971000  
443.000000	77.206999  
443.500000	78.477999  
444.000000	80.188999  
444.500000	79.275000  
445.000000	78.415000  
445.500000	78.634000  
446.000000	78.572000  
446.500000	77.788000  
447.000000	76.822000  
447.500000	77.205000  
448.000000	78.677000  
448.500000	78.355000  
449.000000	77.685000  
449.500000	77.827000  
450.000000	77.555000  
450.500000	77.411000  
451.000000	77.409000  
451.500000	75.096000  
452.000000	76.685000  
452.500000	75.803000  
453.000000	76.260000  
453.500000	76.081000  
454.000000	73.986000  
454.500000	73.755000  
455.000000	72.260000  
455.500000	72.508000  
456.000000	72.408000  
456.500000	73.925000  
457.000000	73.727999  
457.500000	73.071000  
458.000000	72.104000  
458.500000	70.663000  
459.000000	70.330000  
459.500000	70.056000  
460.000000	69.550000  
460.500000	69.887000  
461.000000	68.626000  
461.500000	67.760000  
462.000000	68.414000  
462.500000	68.193000  
463.000000	67.614999  
463.500000	66.371000  
464.000000	67.286000  
464.500000	67.504000  
465.000000	65.187000  
465.500000	66.162000  
466.000000	65.057000  
466.500000	64.538000  
467.000000	63.731000  
467.500000	63.798000  
468.000000	63.713000  
468.500000	63.273000  
469.000000	61.938000  
469.500000	61.798000  
470.000000	60.100000  
470.500000	61.158000  
471.000000	59.782000  
471.500000	59.609000  
472.000000	59.837000  
472.500000	58.772000  
473.000000	57.864000  
473.500000	57.896000  
474.000000	58.555000  
474.500000	56.344000  
475.000000	56.118000  
475.500000	57.278000  
476.000000	56.870000  
476.500000	55.461000  
477.000000	55.400000  
477.500000	54.444000  
478.000000	55.388000  
478.500000	54.750000  
479.000000	54.882000  
479.500000	54.072000  
480.000000	53.134000  
480.500000	54.033000  
481.000000	54.128000  
481.500000	53.570000  
482.000000	51.568000  
482.500000	51.592000  
483.000000	50.782000  
483.500000	51.996000  
484.000000	50.883000  
484.500000	50.605000  
485.000000	49.909000  
485.500000	48.348000  
486.000000	48.862000  
486.500000	48.316000  
487.000000	48.587000  
487.500000	48.432000  
488.000000	47.654000  
488.500000	47.360000  
489.000000	47.473000  
489.500000	46.991000  
490.000000	46.146000  
490.500000	46.748000  
491.000000	45.844000  
491.500000	45.179000  
492.000000	43.935000  
492.500000	43.660000  
493.000000	43.709000  
493.500000	42.674000  
494.000000	43.609000  
494.500000	43.140000  
495.000000	42.554000  
495.500000	42.070000  
496.000000	41.285000  
496.500000	40.833000  
497.000000	41.002000  
497.500000	41.519000  
498.000000	41.409000  
498.500000	40.446000  
499.000000	39.589000  
499.500000	39.051000  
500.000000	37.616000  
500.500000	37.781000  
501.000000	37.751000  
501.500000	36.608000  
502.000000	36.685000  
502.500000	36.541000  
503.000000	36.336000  
503.500000	35.232000  
504.000000	35.198000  
504.500000	34.660000  
505.000000	34.734000  
505.500000	34.518000  
506.000000	34.591000  
506.500000	33.824000  
507.000000	33.089000  
507.500000	32.920000  
508.000000	33.013000  
508.500000	31.682000  
509.000000	32.387000  
509.500000	32.068000  
510.000000	31.597000  
510.500000	31.070000  
511.000000	31.248000  
511.500000	31.084000  
512.000000	30.238000  
512.500000	30.291000  
513.000000	29.500000  
513.500000	29.174000  
514.000000	28.385000  
514.500000	28.502000  
515.000000	28.211000  
515.500000	28.129000  
516.000000	27.909000  
516.500000	27.299000  
517.000000	27.624000  
517.500000	27.846000  
518.000000	26.785000  
518.500000	26.401000  
519.000000	26.180000  
519.500000	25.856000  
520.000000	26.132000  
520.500000	25.359000  
521.000000	24.056000  
521.500000	24.322000  
522.000000	23.803000  
522.500000	24.047000  
523.000000	24.059000  
523.500000	24.189000  
524.000000	23.255000  
524.500000	23.504000  
525.000000	23.147000  
525.500000	22.848000  
526.000000	22.467000  
526.500000	22.188000  
527.000000	21.864000  
527.500000	20.868000  
528.000000	21.217000  
528.500000	21.097000  
529.000000	20.563000  
529.500000	19.991000  
530.000000	20.041000  
530.500000	20.045000  
531.000000	19.355000  
531.500000	18.762000  
532.000000	18.928000  
532.500000	18.537000  
533.000000	18.148000  
533.500000	18.099000  
534.000000	17.816000  
534.500000	18.426000  
535.000000	17.158000  
535.500000	16.325000  
536.000000	17.118000  
536.500000	16.902000  
537.000000	16.088000  
537.500000	15.954000  
538.000000	15.843000  
538.500000	15.618000  
539.000000	16.022000  
539.500000	14.659000  
540.000000	14.719000  
540.500000	14.465000  
541.000000	14.656000  
541.500000	14.048000  
542.000000	14.490000  
542.500000	14.204000  
543.000000	13.542000  
543.500000	13.879000  
544.000000	14.229000  
544.500000	13.772000  
545.000000	12.937000  
545.500000	12.905000  
546.000000	12.704000  
546.500000	12.383000  
547.000000	12.448000  
547.500000	12.522000  
548.000000	12.213000  
548.500000	12.001000  

