PE FL                   SPECTRUM    ASCII       PEDS        1.60        
  -1
0124SC~2.SP
19/01/24
13:43:21.00
19/01/24
13:43:21.00


548.500000
1









LS45
540.00
10.00
10.00
SCAN
1
16
100
100
0
600
0
1
0
1
7
ON
550 545 
0 0 0
#HDR
-1
-1
#GR
NM
INT 
0.00002384185791015625
0.0
230.000000
0.500000
638
8
254.730000
0.002000
#DATA
230.000000	0.015000   
230.500000	0.027000   
231.000000	0.016000   
231.500000	0.027000   
232.000000	0.041000   
232.500000	0.042000   
233.000000	0.025000   
233.500000	0.002000   
234.000000	0.010000   
234.500000	0.023000   
235.000000	0.030000   
235.500000	0.033000   
236.000000	0.042000   
236.500000	0.031000   
237.000000	0.029000   
237.500000	0.026000   
238.000000	0.035000   
238.500000	0.048000   
239.000000	0.050000   
239.500000	0.050000   
240.000000	0.033000   
240.500000	0.041000   
241.000000	0.033000   
241.500000	0.031000   
242.000000	0.008999   
242.500000	0.040000   
243.000000	0.034000   
243.500000	0.064000   
244.000000	0.036000   
244.500000	0.052000   
245.000000	0.042000   
245.500000	0.029000   
246.000000	0.029000   
246.500000	0.044000   
247.000000	0.047000   
247.500000	0.065000   
248.000000	0.078000   
248.500000	0.070999   
249.000000	0.045000   
249.500000	0.052000   
250.000000	0.077000   
250.500000	0.066000   
251.000000	0.068000   
251.500000	0.086999   
252.000000	0.078000   
252.500000	0.103000   
253.000000	0.149000   
253.500000	0.147000   
254.000000	0.213000   
254.500000	0.260000   
255.000000	0.374000   
255.500000	0.487000   
256.000000	0.708000   
256.500000	0.957000   
257.000000	1.202000   
257.500000	1.350000   
258.000000	1.648000   
258.500000	1.800000   
259.000000	2.002000   
259.500000	2.263000   
260.000000	2.544000   
260.500000	2.852000   
261.000000	3.139000   
261.500000	3.744000   
262.000000	4.034000   
262.500000	4.015000   
263.000000	4.445000   
263.500000	4.661000   
264.000000	4.818000   
264.500000	5.025000   
265.000000	5.587000   
265.500000	5.505000   
266.000000	5.733000   
266.500000	5.721000   
267.000000	5.572000   
267.500000	5.636000   
268.000000	5.451000   
268.500000	5.617000   
269.000000	5.164000   
269.500000	5.291000   
270.000000	4.975000   
270.500000	4.736000   
271.000000	4.420000   
271.500000	4.355000   
272.000000	4.234000   
272.500000	3.672000   
273.000000	3.529000   
273.500000	3.097000   
274.000000	2.707000   
274.500000	2.501000   
275.000000	2.414000   
275.500000	1.926000   
276.000000	1.703000   
276.500000	1.252000   
277.000000	1.025000   
277.500000	0.959000   
278.000000	0.670000   
278.500000	0.541000   
279.000000	0.460000   
279.500000	0.541000   
280.000000	0.399000   
280.500000	0.333000   
281.000000	0.320000   
281.500000	0.208000   
282.000000	0.273000   
282.500000	0.334000   
283.000000	0.288000   
283.500000	0.352000   
284.000000	0.411000   
284.500000	0.380000   
285.000000	0.392000   
285.500000	0.478000   
286.000000	0.460000   
286.500000	0.553000   
287.000000	0.618000   
287.500000	0.636000   
288.000000	0.672000   
288.500000	0.656000   
289.000000	0.838000   
289.500000	0.812000   
290.000000	0.815999   
290.500000	0.796000   
291.000000	0.973000   
291.500000	1.047000   
292.000000	1.179000   
292.500000	0.967000   
293.000000	1.156000   
293.500000	1.145000   
294.000000	1.158000   
294.500000	1.020000   
295.000000	1.109000   
295.500000	0.980000   
296.000000	0.964000   
296.500000	1.029000   
297.000000	1.117000   
297.500000	1.147000   
298.000000	0.894000   
298.500000	0.890000   
299.000000	0.982000   
299.500000	0.945000   
300.000000	0.905000   
300.500000	0.826000   
301.000000	0.812999   
301.500000	0.819000   
302.000000	0.709000   
302.500000	0.649000   
303.000000	0.733000   
303.500000	0.648000   
304.000000	0.615000   
304.500000	0.619000   
305.000000	0.548000   
305.500000	0.743000   
306.000000	0.599000   
306.500000	0.607000   
307.000000	0.563999   
307.500000	0.471000   
308.000000	0.537000   
308.500000	0.546000   
309.000000	0.532000   
309.500000	0.601000   
310.000000	0.557000   
310.500000	0.627000   
311.000000	0.603000   
311.500000	0.595000   
312.000000	0.528000   
312.500000	0.542000   
313.000000	0.497000   
313.500000	0.658000   
314.000000	0.660000   
314.500000	0.657000   
315.000000	0.643000   
315.500000	0.702000   
316.000000	0.750000   
316.500000	0.764000   
317.000000	0.825000   
317.500000	0.666000   
318.000000	0.712000   
318.500000	0.794000   
319.000000	0.848000   
319.500000	0.781000   
320.000000	0.794000   
320.500000	0.855000   
321.000000	0.848000   
321.500000	0.720000   
322.000000	0.881000   
322.500000	0.880000   
323.000000	0.821000   
323.500000	0.781000   
324.000000	0.796000   
324.500000	0.995000   
325.000000	1.069000   
325.500000	1.006000   
326.000000	1.068000   
326.500000	1.057000   
327.000000	0.906000   
327.500000	1.046000   
328.000000	1.080000   
328.500000	1.155000   
329.000000	1.239000   
329.500000	1.159000   
330.000000	1.281000   
330.500000	1.118000   
331.000000	1.280000   
331.500000	1.267000   
332.000000	1.229000   
332.500000	1.372000   
333.000000	1.206000   
333.500000	1.089000   
334.000000	1.262000   
334.500000	1.290000   
335.000000	1.217000   
335.500000	1.120000   
336.000000	1.189000   
336.500000	1.327000   
337.000000	1.463000   
337.500000	1.406000   
338.000000	1.489000   
338.500000	1.269000   
339.000000	1.466000   
339.500000	1.553000   
340.000000	1.564000   
340.500000	1.537000   
341.000000	1.447000   
341.500000	1.543000   
342.000000	1.487000   
342.500000	1.293000   
343.000000	1.423000   
343.500000	1.523000   
344.000000	1.580000   
344.500000	1.641000   
345.000000	1.609000   
345.500000	1.614000   
346.000000	1.611000   
346.500000	1.626000   
347.000000	1.544000   
347.500000	1.534000   
348.000000	1.578000   
348.500000	1.582000   
349.000000	1.638000   
349.500000	1.719000   
350.000000	1.713000   
350.500000	1.641000   
351.000000	1.690000   
351.500000	1.777000   
352.000000	1.751000   
352.500000	1.657000   
353.000000	1.601000   
353.500000	1.722000   
354.000000	1.770000   
354.500000	1.752000   
355.000000	1.614000   
355.500000	1.586000   
356.000000	1.633000   
356.500000	1.893000   
357.000000	1.706000   
357.500000	1.730000   
358.000000	1.545000   
358.500000	1.606000   
359.000000	1.575000   
359.500000	1.577000   
360.000000	1.837000   
360.500000	1.695000   
361.000000	1.479000   
361.500000	1.666000   
362.000000	1.488000   
362.500000	1.606000   
363.000000	1.594000   
363.500000	1.388000   
364.000000	1.399000   
364.500000	1.644000   
365.000000	1.624000   
365.500000	1.633000   
366.000000	1.578000   
366.500000	1.541000   
367.000000	1.728000   
367.500000	1.596000   
368.000000	1.565000   
368.500000	1.513000   
369.000000	1.595000   
369.500000	1.520000   
370.000000	1.612000   
370.500000	1.547000   
371.000000	1.488000   
371.500000	1.490000   
372.000000	1.422000   
372.500000	1.511000   
373.000000	1.508000   
373.500000	1.626000   
374.000000	1.529000   
374.500000	1.414000   
375.000000	1.554000   
375.500000	1.322000   
376.000000	1.371000   
376.500000	1.478000   
377.000000	1.304000   
377.500000	1.479000   
378.000000	1.400000   
378.500000	1.416000   
379.000000	1.402000   
379.500000	1.376000   
380.000000	1.321000   
380.500000	1.438000   
381.000000	1.381000   
381.500000	1.277000   
382.000000	1.250000   
382.500000	1.248000   
383.000000	1.397000   
383.500000	1.321000   
384.000000	1.438000   
384.500000	1.415000   
385.000000	1.408000   
385.500000	1.352000   
386.000000	1.350000   
386.500000	1.210000   
387.000000	1.226000   
387.500000	1.222000   
388.000000	1.330000   
388.500000	1.311000   
389.000000	1.356000   
389.500000	1.426000   
390.000000	1.307000   
390.500000	1.248000   
391.000000	1.330000   
391.500000	1.225000   
392.000000	1.353000   
392.500000	1.133000   
393.000000	1.165000   
393.500000	1.145000   
394.000000	1.157000   
394.500000	1.088000   
395.000000	1.185000   
395.500000	1.163000   
396.000000	1.056000   
396.500000	1.113000   
397.000000	1.350000   
397.500000	1.319000   
398.000000	1.074000   
398.500000	1.118000   
399.000000	1.137000   
399.500000	1.221000   
400.000000	1.129000   
400.500000	1.108000   
401.000000	1.221000   
401.500000	1.251000   
402.000000	1.074000   
402.500000	1.265000   
403.000000	1.140000   
403.500000	1.120000   
404.000000	1.078000   
404.500000	1.165000   
405.000000	1.108000   
405.500000	1.148000   
406.000000	1.119000   
406.500000	0.998000   
407.000000	0.997000   
407.500000	1.170000   
408.000000	1.080000   
408.500000	1.053000   
409.000000	1.167000   
409.500000	1.104000   
410.000000	1.259000   
410.500000	1.255000   
411.000000	1.191000   
411.500000	1.045000   
412.000000	0.987000   
412.500000	1.030000   
413.000000	1.069000   
413.500000	1.171000   
414.000000	1.206000   
414.500000	1.125000   
415.000000	1.101000   
415.500000	1.098000   
416.000000	1.125000   
416.500000	1.073000   
417.000000	1.112000   
417.500000	1.110000   
418.000000	0.979000   
418.500000	0.999000   
419.000000	1.249000   
419.500000	1.142000   
420.000000	0.932000   
420.500000	0.965000   
421.000000	1.077000   
421.500000	1.038000   
422.000000	0.924000   
422.500000	0.991000   
423.000000	1.051000   
423.500000	0.998000   
424.000000	0.919000   
424.500000	0.895000   
425.000000	1.112000   
425.500000	1.135000   
426.000000	1.107000   
426.500000	1.183000   
427.000000	0.976000   
427.500000	0.968000   
428.000000	0.920000   
428.500000	0.965000   
429.000000	0.969000   
429.500000	1.077000   
430.000000	1.012000   
430.500000	0.995000   
431.000000	0.979000   
431.500000	1.041000   
432.000000	1.007000   
432.500000	1.014000   
433.000000	1.113000   
433.500000	1.107000   
434.000000	1.210000   
434.500000	1.089000   
435.000000	0.920000   
435.500000	1.090000   
436.000000	1.087000   
436.500000	1.128000   
437.000000	1.010000   
437.500000	1.162000   
438.000000	1.072000   
438.500000	0.891000   
439.000000	0.976000   
439.500000	1.120000   
440.000000	1.191000   
440.500000	0.975000   
441.000000	1.029000   
441.500000	1.121000   
442.000000	1.120000   
442.500000	1.000000   
443.000000	0.976000   
443.500000	1.030000   
444.000000	1.040000   
444.500000	1.202000   
445.000000	1.207000   
445.500000	1.209000   
446.000000	1.076000   
446.500000	1.056000   
447.000000	1.205000   
447.500000	1.166000   
448.000000	1.272000   
448.500000	1.138000   
449.000000	1.145000   
449.500000	1.095000   
450.000000	1.052000   
450.500000	1.091000   
451.000000	1.008000   
451.500000	1.105000   
452.000000	1.204000   
452.500000	1.169000   
453.000000	1.171000   
453.500000	1.112000   
454.000000	0.945000   
454.500000	0.936000   
455.000000	1.085000   
455.500000	1.252000   
456.000000	1.175000   
456.500000	1.105000   
457.000000	1.041000   
457.500000	1.047000   
458.000000	1.105000   
458.500000	1.055000   
459.000000	1.119000   
459.500000	1.097000   
460.000000	1.113000   
460.500000	1.079000   
461.000000	1.190000   
461.500000	1.051000   
462.000000	1.117000   
462.500000	1.144000   
463.000000	1.102000   
463.500000	1.195000   
464.000000	1.100000   
464.500000	1.024000   
465.000000	1.079000   
465.500000	1.040000   
466.000000	0.932000   
466.500000	1.074000   
467.000000	1.165000   
467.500000	1.150000   
468.000000	1.148000   
468.500000	1.107000   
469.000000	1.008000   
469.500000	0.985000   
470.000000	1.229000   
470.500000	1.033000   
471.000000	0.871000   
471.500000	1.062000   
472.000000	1.090000   
472.500000	1.095000   
473.000000	1.067000   
473.500000	0.955000   
474.000000	1.239000   
474.500000	1.187000   
475.000000	1.228000   
475.500000	1.194000   
476.000000	1.145000   
476.500000	1.089000   
477.000000	1.202000   
477.500000	1.207000   
478.000000	1.205000   
478.500000	1.294000   
479.000000	1.190000   
479.500000	1.170000   
480.000000	1.122000   
480.500000	1.213000   
481.000000	1.109000   
481.500000	1.095000   
482.000000	1.164000   
482.500000	1.320000   
483.000000	1.237000   
483.500000	1.266000   
484.000000	1.380000   
484.500000	1.489000   
485.000000	1.303000   
485.500000	1.298000   
486.000000	1.295000   
486.500000	1.269000   
487.000000	1.305000   
487.500000	1.391000   
488.000000	1.323000   
488.500000	1.515000   
489.000000	1.439000   
489.500000	1.348000   
490.000000	1.410000   
490.500000	1.339000   
491.000000	1.283000   
491.500000	1.287000   
492.000000	1.424000   
492.500000	1.459000   
493.000000	1.201000   
493.500000	1.293000   
494.000000	1.441000   
494.500000	1.414000   
495.000000	1.241000   
495.500000	1.235000   
496.000000	1.496000   
496.500000	1.273000   
497.000000	1.249000   
497.500000	1.278000   
498.000000	1.515000   
498.500000	1.489000   
499.000000	1.317000   
499.500000	1.323000   
500.000000	1.271000   
500.500000	1.500000   
501.000000	1.317000   
501.500000	1.334000   
502.000000	1.422000   
502.500000	1.440000   
503.000000	1.380000   
503.500000	1.367000   
504.000000	1.428000   
504.500000	1.404000   
505.000000	1.351000   
505.500000	1.223000   
506.000000	1.070000   
506.500000	1.209000   
507.000000	1.304000   
507.500000	1.334000   
508.000000	1.326000   
508.500000	1.281000   
509.000000	1.330000   
509.500000	1.521000   
510.000000	1.465000   
510.500000	1.453000   
511.000000	1.329000   
511.500000	1.573000   
512.000000	1.539000   
512.500000	1.527000   
513.000000	1.542000   
513.500000	1.572000   
514.000000	1.512000   
514.500000	1.726000   
515.000000	1.669000   
515.500000	1.768000   
516.000000	1.908000   
516.500000	2.047000   
517.000000	2.458000   
517.500000	2.820000   
518.000000	3.506000   
518.500000	3.920000   
519.000000	5.265000   
519.500000	6.030000   
520.000000	7.888000   
520.500000	9.449000   
521.000000	12.009000  
521.500000	14.653000  
522.000000	18.738000  
522.500000	22.457000  
523.000000	27.495000  
523.500000	32.613000  
524.000000	39.448000  
524.500000	45.473000  
525.000000	54.910000  
525.500000	61.745000  
526.000000	69.807000  
526.500000	81.444999  
527.000000	91.562000  
527.500000	100.120000 
528.000000	112.065000 
528.500000	125.532000 
529.000000	136.922000 
529.500000	147.941000 
530.000000	158.109000 
530.500000	172.389000 
531.000000	187.234000 
531.500000	196.665000 
532.000000	208.941000 
532.500000	217.218000 
533.000000	227.500000 
533.500000	234.507000 
534.000000	241.751000 
534.500000	246.429000 
535.000000	248.078000 
535.500000	252.082000 
536.000000	254.730000 
536.500000	251.402000 
537.000000	250.381000 
537.500000	246.624000 
538.000000	240.762000 
538.500000	235.725000 
539.000000	227.794000 
539.500000	220.895000 
540.000000	208.316000 
540.500000	197.289000 
541.000000	190.244000 
541.500000	177.113000 
542.000000	166.727000 
542.500000	151.724000 
543.000000	140.072000 
543.500000	126.144000 
544.000000	115.267000 
544.500000	103.681000 
545.000000	91.986000  
545.500000	81.180000  
546.000000	74.449000  
546.500000	61.262000  
547.000000	53.886000  
547.500000	45.676000  
548.000000	40.368000  
548.500000	34.279000  

