PE FL                   SPECTRUM    ASCII       PEDS        1.60        
  -1
013103~1.SP
19/01/24
13:19:11.00
19/01/24
13:19:11.00


548.500000
1









LS45
380.00
10.00
10.00
SCAN
1
16
100
100
0
600
0
1
0
1
7
ON
550 545 
0 0 0
#HDR
-1
-1
#GR
NM
INT 
0.00002384185791015625
0.0
230.000000
0.500000
638
8
999.999000
0.289000
#DATA
230.000000	0.289000   
230.500000	0.441000   
231.000000	0.475000   
231.500000	0.332000   
232.000000	0.379000   
232.500000	0.475000   
233.000000	0.402000   
233.500000	0.367000   
234.000000	0.413000   
234.500000	0.363000   
235.000000	0.428000   
235.500000	0.472000   
236.000000	0.336000   
236.500000	0.426000   
237.000000	0.393000   
237.500000	0.344000   
238.000000	0.414000   
238.500000	0.398000   
239.000000	0.376000   
239.500000	0.456000   
240.000000	0.418000   
240.500000	0.384000   
241.000000	0.400000   
241.500000	0.412000   
242.000000	0.386000   
242.500000	0.360000   
243.000000	0.408000   
243.500000	0.344000   
244.000000	0.361000   
244.500000	0.462000   
245.000000	0.463000   
245.500000	0.450000   
246.000000	0.401000   
246.500000	0.395000   
247.000000	0.361000   
247.500000	0.398000   
248.000000	0.376000   
248.500000	0.387000   
249.000000	0.416000   
249.500000	0.468000   
250.000000	0.357000   
250.500000	0.341000   
251.000000	0.540000   
251.500000	0.392000   
252.000000	0.427000   
252.500000	0.385000   
253.000000	0.535000   
253.500000	0.463000   
254.000000	0.344000   
254.500000	0.382000   
255.000000	0.399000   
255.500000	0.449000   
256.000000	0.556000   
256.500000	0.351000   
257.000000	0.428000   
257.500000	0.459000   
258.000000	0.454000   
258.500000	0.492000   
259.000000	0.477000   
259.500000	0.457000   
260.000000	0.586000   
260.500000	0.573000   
261.000000	0.531000   
261.500000	0.447000   
262.000000	0.484000   
262.500000	0.551000   
263.000000	0.477000   
263.500000	0.543000   
264.000000	0.505000   
264.500000	0.457000   
265.000000	0.489000   
265.500000	0.517000   
266.000000	0.535000   
266.500000	0.632000   
267.000000	0.483000   
267.500000	0.471000   
268.000000	0.480000   
268.500000	0.437000   
269.000000	0.527000   
269.500000	0.607000   
270.000000	0.546000   
270.500000	0.554000   
271.000000	0.496000   
271.500000	0.481000   
272.000000	0.580000   
272.500000	0.634000   
273.000000	0.571000   
273.500000	0.567999   
274.000000	0.521000   
274.500000	0.657000   
275.000000	0.528000   
275.500000	0.502000   
276.000000	0.641000   
276.500000	0.521000   
277.000000	0.663000   
277.500000	0.579000   
278.000000	0.575000   
278.500000	0.563999   
279.000000	0.621000   
279.500000	0.591000   
280.000000	0.639000   
280.500000	0.647000   
281.000000	0.583000   
281.500000	0.704000   
282.000000	0.634000   
282.500000	0.655000   
283.000000	0.658000   
283.500000	0.645000   
284.000000	0.786000   
284.500000	0.680000   
285.000000	0.673000   
285.500000	0.689999   
286.000000	0.671000   
286.500000	0.627000   
287.000000	0.751000   
287.500000	0.598000   
288.000000	0.448000   
288.500000	0.583000   
289.000000	0.687999   
289.500000	0.709000   
290.000000	0.726000   
290.500000	0.720000   
291.000000	0.701000   
291.500000	0.792000   
292.000000	0.757000   
292.500000	0.714000   
293.000000	0.769000   
293.500000	0.618000   
294.000000	0.554000   
294.500000	0.733000   
295.000000	0.689999   
295.500000	0.833000   
296.000000	0.726000   
296.500000	0.767000   
297.000000	0.791000   
297.500000	0.861000   
298.000000	0.841000   
298.500000	0.874000   
299.000000	0.830000   
299.500000	0.854000   
300.000000	0.919000   
300.500000	0.953000   
301.000000	0.849000   
301.500000	0.952000   
302.000000	0.870000   
302.500000	0.877000   
303.000000	1.064000   
303.500000	0.905000   
304.000000	0.993000   
304.500000	0.953000   
305.000000	0.915000   
305.500000	0.994000   
306.000000	0.876000   
306.500000	0.969000   
307.000000	0.802000   
307.500000	1.127000   
308.000000	1.006000   
308.500000	0.801000   
309.000000	0.988000   
309.500000	0.918000   
310.000000	1.079000   
310.500000	1.262000   
311.000000	1.027000   
311.500000	1.039000   
312.000000	1.021000   
312.500000	1.124000   
313.000000	1.213000   
313.500000	1.156000   
314.000000	1.147000   
314.500000	1.206000   
315.000000	1.051000   
315.500000	1.063000   
316.000000	1.139000   
316.500000	1.095000   
317.000000	1.253000   
317.500000	1.327000   
318.000000	1.255000   
318.500000	1.190000   
319.000000	1.257000   
319.500000	1.396000   
320.000000	1.327000   
320.500000	1.559000   
321.000000	1.471000   
321.500000	1.453000   
322.000000	1.320000   
322.500000	1.533000   
323.000000	1.532000   
323.500000	1.407000   
324.000000	1.437000   
324.500000	1.720000   
325.000000	1.577000   
325.500000	1.696000   
326.000000	1.876000   
326.500000	1.822000   
327.000000	1.903000   
327.500000	1.867000   
328.000000	2.225000   
328.500000	2.079000   
329.000000	2.228000   
329.500000	2.040000   
330.000000	2.174000   
330.500000	2.249000   
331.000000	2.296000   
331.500000	2.274000   
332.000000	2.217000   
332.500000	2.370000   
333.000000	2.484000   
333.500000	2.633000   
334.000000	2.734000   
334.500000	2.782000   
335.000000	2.767000   
335.500000	2.801000   
336.000000	2.890000   
336.500000	2.975000   
337.000000	3.097000   
337.500000	3.112000   
338.000000	2.879000   
338.500000	2.993000   
339.000000	3.574000   
339.500000	3.464000   
340.000000	3.496000   
340.500000	3.349000   
341.000000	3.893000   
341.500000	3.856000   
342.000000	3.729000   
342.500000	3.631000   
343.000000	3.791000   
343.500000	4.321000   
344.000000	4.321000   
344.500000	4.399000   
345.000000	4.702000   
345.500000	5.100000   
346.000000	4.790000   
346.500000	4.528000   
347.000000	4.824000   
347.500000	5.101000   
348.000000	5.255000   
348.500000	5.933000   
349.000000	5.809000   
349.500000	5.951000   
350.000000	6.364000   
350.500000	6.276000   
351.000000	6.463000   
351.500000	6.564000   
352.000000	6.974000   
352.500000	7.068000   
353.000000	7.416000   
353.500000	7.962000   
354.000000	8.125000   
354.500000	8.664999   
355.000000	9.026000   
355.500000	10.046000  
356.000000	11.088000  
356.500000	13.346000  
357.000000	15.924000  
357.500000	20.083000  
358.000000	25.057000  
358.500000	31.779000  
359.000000	39.268000  
359.500000	50.715000  
360.000000	62.021000  
360.500000	80.016000  
361.000000	96.982000  
361.500000	121.514000 
362.000000	150.723000 
362.500000	189.387000 
363.000000	220.669000 
363.500000	265.132000 
364.000000	306.612000 
364.500000	364.678000 
365.000000	417.441000 
365.500000	532.447000 
366.000000	543.742000 
366.500000	667.079000 
367.000000	733.183000 
367.500000	827.776000 
368.000000	838.944000 
368.500000	967.045000 
369.000000	977.791000 
369.500000	999.999000 
370.000000	999.999000 
370.500000	999.999000 
371.000000	999.999000 
371.500000	999.999000 
372.000000	999.999000 
372.500000	999.999000 
373.000000	999.999000 
373.500000	999.999000 
374.000000	999.999000 
374.500000	999.999000 
375.000000	999.999000 
375.500000	999.999000 
376.000000	999.999000 
376.500000	999.999000 
377.000000	999.999000 
377.500000	999.999000 
378.000000	999.999000 
378.500000	999.999000 
379.000000	999.999000 
379.500000	999.999000 
380.000000	999.999000 
380.500000	999.999000 
381.000000	999.999000 
381.500000	999.999000 
382.000000	999.999000 
382.500000	999.999000 
383.000000	999.999000 
383.500000	992.077000 
384.000000	980.292000 
384.500000	848.173000 
385.000000	773.662000 
385.500000	687.877000 
386.000000	676.410000 
386.500000	544.985000 
387.000000	535.769000 
387.500000	415.011000 
388.000000	406.875000 
388.500000	362.256000 
389.000000	304.581000 
389.500000	259.437000 
390.000000	220.810000 
390.500000	184.377000 
391.000000	150.683000 
391.500000	122.798000 
392.000000	100.597000 
392.500000	81.627000  
393.000000	66.688000  
393.500000	52.122000  
394.000000	43.996000  
394.500000	35.000000  
395.000000	30.620000  
395.500000	26.553000  
396.000000	24.795000  
396.500000	22.198000  
397.000000	21.130000  
397.500000	21.219000  
398.000000	21.233000  
398.500000	20.603000  
399.000000	20.489000  
399.500000	20.695000  
400.000000	21.374000  
400.500000	21.880000  
401.000000	21.478000  
401.500000	21.998000  
402.000000	22.448000  
402.500000	22.074000  
403.000000	21.821000  
403.500000	22.642000  
404.000000	22.634000  
404.500000	23.657000  
405.000000	23.746000  
405.500000	23.504000  
406.000000	24.156000  
406.500000	24.648000  
407.000000	25.312000  
407.500000	26.573000  
408.000000	26.264000  
408.500000	25.879000  
409.000000	26.704000  
409.500000	26.975000  
410.000000	28.129000  
410.500000	28.463000  
411.000000	28.344000  
411.500000	29.259000  
412.000000	29.830000  
412.500000	30.289000  
413.000000	30.316000  
413.500000	32.495000  
414.000000	33.636000  
414.500000	34.178000  
415.000000	35.219000  
415.500000	36.756000  
416.000000	37.815000  
416.500000	38.835000  
417.000000	38.700000  
417.500000	41.735000  
418.000000	41.886000  
418.500000	44.195000  
419.000000	44.131000  
419.500000	46.970000  
420.000000	46.779000  
420.500000	49.489000  
421.000000	50.857000  
421.500000	52.845000  
422.000000	54.654000  
422.500000	56.965000  
423.000000	58.522000  
423.500000	61.869000  
424.000000	63.215000  
424.500000	65.040000  
425.000000	66.888000  
425.500000	69.390000  
426.000000	70.270000  
426.500000	73.054000  
427.000000	73.712000  
427.500000	75.816000  
428.000000	77.477000  
428.500000	79.184000  
429.000000	80.004000  
429.500000	80.934000  
430.000000	82.259000  
430.500000	82.819000  
431.000000	84.685000  
431.500000	84.753000  
432.000000	85.736999  
432.500000	85.384000  
433.000000	86.367999  
433.500000	86.882000  
434.000000	85.536000  
434.500000	86.220000  
435.000000	84.546000  
435.500000	85.861999  
436.000000	84.477999  
436.500000	84.035000  
437.000000	84.081999  
437.500000	83.352999  
438.000000	83.331000  
438.500000	81.775000  
439.000000	82.331000  
439.500000	81.340999  
440.000000	78.578999  
440.500000	77.955000  
441.000000	76.998000  
441.500000	75.938999  
442.000000	74.874000  
442.500000	74.144000  
443.000000	73.343000  
443.500000	73.717000  
444.000000	71.117000  
444.500000	70.647000  
445.000000	70.822999  
445.500000	68.849999  
446.000000	69.596999  
446.500000	68.846999  
447.000000	67.772000  
447.500000	66.815000  
448.000000	67.087000  
448.500000	65.779000  
449.000000	64.569999  
449.500000	64.992000  
450.000000	65.255000  
450.500000	66.125000  
451.000000	66.527000  
451.500000	64.983000  
452.000000	64.635000  
452.500000	65.019000  
453.000000	64.256000  
453.500000	63.850000  
454.000000	64.147000  
454.500000	63.449000  
455.000000	63.266000  
455.500000	63.068000  
456.000000	63.223000  
456.500000	63.107000  
457.000000	62.816000  
457.500000	61.553000  
458.000000	63.859000  
458.500000	61.255000  
459.000000	60.868000  
459.500000	61.550000  
460.000000	60.526000  
460.500000	60.439000  
461.000000	59.434000  
461.500000	59.240000  
462.000000	59.494000  
462.500000	60.090000  
463.000000	59.280000  
463.500000	59.509000  
464.000000	59.660000  
464.500000	57.743000  
465.000000	57.976000  
465.500000	58.412000  
466.000000	57.057000  
466.500000	56.866000  
467.000000	56.311000  
467.500000	57.085000  
468.000000	56.482000  
468.500000	56.542000  
469.000000	55.602000  
469.500000	55.603000  
470.000000	55.724000  
470.500000	55.709000  
471.000000	55.167000  
471.500000	54.326000  
472.000000	55.180000  
472.500000	52.900000  
473.000000	52.902000  
473.500000	54.255000  
474.000000	53.196000  
474.500000	51.604000  
475.000000	52.789000  
475.500000	53.229000  
476.000000	52.359000  
476.500000	52.164000  
477.000000	51.645000  
477.500000	51.516000  
478.000000	50.906000  
478.500000	50.814000  
479.000000	51.235000  
479.500000	50.623000  
480.000000	49.888000  
480.500000	50.166000  
481.000000	49.438000  
481.500000	50.128000  
482.000000	48.444000  
482.500000	47.598000  
483.000000	48.194000  
483.500000	48.531000  
484.000000	46.924000  
484.500000	47.058000  
485.000000	46.444000  
485.500000	46.958000  
486.000000	45.489000  
486.500000	44.906000  
487.000000	45.192000  
487.500000	44.964000  
488.000000	44.673000  
488.500000	44.695000  
489.000000	44.276000  
489.500000	44.046000  
490.000000	43.620000  
490.500000	42.668000  
491.000000	43.106000  
491.500000	43.483000  
492.000000	41.336000  
492.500000	42.319000  
493.000000	41.925000  
493.500000	40.981000  
494.000000	41.655000  
494.500000	40.581000  
495.000000	39.713000  
495.500000	39.375000  
496.000000	39.034000  
496.500000	38.749000  
497.000000	37.483000  
497.500000	37.870000  
498.000000	38.810000  
498.500000	36.670000  
499.000000	37.181000  
499.500000	36.705000  
500.000000	36.400000  
500.500000	36.439000  
501.000000	36.588000  
501.500000	35.293000  
502.000000	35.000000  
502.500000	33.925000  
503.000000	33.829000  
503.500000	33.614000  
504.000000	33.511000  
504.500000	33.081000  
505.000000	33.307000  
505.500000	32.639000  
506.000000	32.071000  
506.500000	32.110000  
507.000000	31.718000  
507.500000	31.064000  
508.000000	30.964000  
508.500000	31.760000  
509.000000	29.678000  
509.500000	29.971000  
510.000000	29.120000  
510.500000	29.134000  
511.000000	29.537000  
511.500000	29.247000  
512.000000	28.775000  
512.500000	27.843000  
513.000000	27.515000  
513.500000	26.466000  
514.000000	26.649000  
514.500000	27.829000  
515.000000	26.468000  
515.500000	25.556000  
516.000000	25.665000  
516.500000	25.806000  
517.000000	25.424000  
517.500000	25.691000  
518.000000	25.099000  
518.500000	25.269000  
519.000000	23.975000  
519.500000	23.316000  
520.000000	23.373000  
520.500000	23.950000  
521.000000	22.357000  
521.500000	22.981000  
522.000000	23.299000  
522.500000	22.973000  
523.000000	23.139000  
523.500000	22.025000  
524.000000	21.442000  
524.500000	21.195000  
525.000000	21.322000  
525.500000	21.420000  
526.000000	20.524000  
526.500000	20.191000  
527.000000	20.036000  
527.500000	19.669000  
528.000000	19.924000  
528.500000	19.440000  
529.000000	19.419000  
529.500000	19.885000  
530.000000	18.821000  
530.500000	18.529000  
531.000000	18.200000  
531.500000	17.237000  
532.000000	17.092000  
532.500000	16.194000  
533.000000	16.777000  
533.500000	16.738000  
534.000000	17.365000  
534.500000	16.591000  
535.000000	16.453000  
535.500000	16.485000  
536.000000	16.253000  
536.500000	15.286000  
537.000000	14.884000  
537.500000	14.955000  
538.000000	14.984000  
538.500000	14.589000  
539.000000	14.413000  
539.500000	13.820000  
540.000000	14.016000  
540.500000	13.766000  
541.000000	13.826000  
541.500000	13.240000  
542.000000	13.330000  
542.500000	13.445000  
543.000000	12.765000  
543.500000	12.593000  
544.000000	11.924000  
544.500000	12.453000  
545.000000	12.186000  
545.500000	11.813000  
546.000000	12.042000  
546.500000	11.832000  
547.000000	11.520000  
547.500000	10.987000  
548.000000	11.371000  
548.500000	11.556000  

