PE FL                   SPECTRUM    ASCII       PEDS        1.60        
  -1
013507~1.SP
19/01/24
13:25:58.00
19/01/24
13:25:58.00


548.500000
1









LS45
425.00
10.00
10.00
SCAN
1
16
100
100
0
600
0
1
0
1
7
ON
550 545 
0 0 0
#HDR
-1
-1
#GR
NM
INT 
0.00002384185791015625
0.0
230.000000
0.500000
638
8
999.999000
0.132000
#DATA
230.000000	0.219000   
230.500000	0.224000   
231.000000	0.175000   
231.500000	0.247000   
232.000000	0.226000   
232.500000	0.253000   
233.000000	0.234000   
233.500000	0.187000   
234.000000	0.157000   
234.500000	0.174000   
235.000000	0.172000   
235.500000	0.210000   
236.000000	0.258000   
236.500000	0.227000   
237.000000	0.234000   
237.500000	0.260000   
238.000000	0.256000   
238.500000	0.259000   
239.000000	0.251000   
239.500000	0.181000   
240.000000	0.193000   
240.500000	0.326000   
241.000000	0.281000   
241.500000	0.254000   
242.000000	0.211000   
242.500000	0.227000   
243.000000	0.302000   
243.500000	0.281000   
244.000000	0.262000   
244.500000	0.225000   
245.000000	0.223000   
245.500000	0.209000   
246.000000	0.189000   
246.500000	0.197000   
247.000000	0.224000   
247.500000	0.308000   
248.000000	0.286000   
248.500000	0.280000   
249.000000	0.249000   
249.500000	0.132000   
250.000000	0.206000   
250.500000	0.181000   
251.000000	0.247000   
251.500000	0.237000   
252.000000	0.312000   
252.500000	0.255000   
253.000000	0.181000   
253.500000	0.170000   
254.000000	0.168000   
254.500000	0.216000   
255.000000	0.268000   
255.500000	0.196000   
256.000000	0.211000   
256.500000	0.207000   
257.000000	0.235000   
257.500000	0.221000   
258.000000	0.260000   
258.500000	0.187000   
259.000000	0.202000   
259.500000	0.178000   
260.000000	0.173000   
260.500000	0.244000   
261.000000	0.185000   
261.500000	0.200000   
262.000000	0.196000   
262.500000	0.293000   
263.000000	0.188000   
263.500000	0.222000   
264.000000	0.262000   
264.500000	0.287000   
265.000000	0.255000   
265.500000	0.178000   
266.000000	0.257000   
266.500000	0.252000   
267.000000	0.282000   
267.500000	0.201000   
268.000000	0.269000   
268.500000	0.290000   
269.000000	0.305000   
269.500000	0.254000   
270.000000	0.219000   
270.500000	0.252000   
271.000000	0.229000   
271.500000	0.191000   
272.000000	0.257000   
272.500000	0.289000   
273.000000	0.242000   
273.500000	0.251000   
274.000000	0.297000   
274.500000	0.365000   
275.000000	0.251000   
275.500000	0.296000   
276.000000	0.231000   
276.500000	0.217000   
277.000000	0.239000   
277.500000	0.251000   
278.000000	0.265000   
278.500000	0.200000   
279.000000	0.257000   
279.500000	0.327000   
280.000000	0.265000   
280.500000	0.185000   
281.000000	0.233000   
281.500000	0.314000   
282.000000	0.251000   
282.500000	0.202000   
283.000000	0.264000   
283.500000	0.227000   
284.000000	0.261000   
284.500000	0.265000   
285.000000	0.350000   
285.500000	0.275000   
286.000000	0.257000   
286.500000	0.257000   
287.000000	0.327000   
287.500000	0.283000   
288.000000	0.302000   
288.500000	0.235000   
289.000000	0.233000   
289.500000	0.276000   
290.000000	0.343000   
290.500000	0.336000   
291.000000	0.324000   
291.500000	0.339000   
292.000000	0.317000   
292.500000	0.253000   
293.000000	0.358000   
293.500000	0.291000   
294.000000	0.204000   
294.500000	0.268000   
295.000000	0.295000   
295.500000	0.387000   
296.000000	0.321000   
296.500000	0.278000   
297.000000	0.344000   
297.500000	0.424000   
298.000000	0.351000   
298.500000	0.338000   
299.000000	0.361000   
299.500000	0.352000   
300.000000	0.309000   
300.500000	0.315000   
301.000000	0.324000   
301.500000	0.325000   
302.000000	0.400000   
302.500000	0.329000   
303.000000	0.298000   
303.500000	0.340000   
304.000000	0.352000   
304.500000	0.362000   
305.000000	0.420000   
305.500000	0.339000   
306.000000	0.406000   
306.500000	0.382000   
307.000000	0.421000   
307.500000	0.396000   
308.000000	0.375000   
308.500000	0.392000   
309.000000	0.397000   
309.500000	0.332000   
310.000000	0.335000   
310.500000	0.368000   
311.000000	0.399000   
311.500000	0.456000   
312.000000	0.430000   
312.500000	0.402000   
313.000000	0.413000   
313.500000	0.369000   
314.000000	0.344000   
314.500000	0.475000   
315.000000	0.503000   
315.500000	0.503000   
316.000000	0.441000   
316.500000	0.412000   
317.000000	0.463000   
317.500000	0.485000   
318.000000	0.444000   
318.500000	0.425000   
319.000000	0.386000   
319.500000	0.463000   
320.000000	0.450000   
320.500000	0.470000   
321.000000	0.430000   
321.500000	0.563999   
322.000000	0.460000   
322.500000	0.407000   
323.000000	0.497000   
323.500000	0.535000   
324.000000	0.560000   
324.500000	0.586000   
325.000000	0.632000   
325.500000	0.618000   
326.000000	0.448000   
326.500000	0.518000   
327.000000	0.564999   
327.500000	0.529000   
328.000000	0.528000   
328.500000	0.536000   
329.000000	0.594000   
329.500000	0.616000   
330.000000	0.620000   
330.500000	0.647000   
331.000000	0.645000   
331.500000	0.597000   
332.000000	0.560000   
332.500000	0.574000   
333.000000	0.676000   
333.500000	0.629000   
334.000000	0.618000   
334.500000	0.662000   
335.000000	0.665000   
335.500000	0.635000   
336.000000	0.587000   
336.500000	0.619000   
337.000000	0.774000   
337.500000	0.653000   
338.000000	0.650000   
338.500000	0.670000   
339.000000	0.595000   
339.500000	0.765000   
340.000000	0.735000   
340.500000	0.635000   
341.000000	0.602000   
341.500000	0.597000   
342.000000	0.686000   
342.500000	0.685000   
343.000000	0.717000   
343.500000	0.720000   
344.000000	0.712000   
344.500000	0.744000   
345.000000	0.735000   
345.500000	0.771000   
346.000000	0.770000   
346.500000	0.804000   
347.000000	0.749000   
347.500000	0.739000   
348.000000	0.768000   
348.500000	0.835000   
349.000000	0.928000   
349.500000	0.803000   
350.000000	0.789000   
350.500000	0.767000   
351.000000	0.863000   
351.500000	0.781000   
352.000000	0.833000   
352.500000	0.785000   
353.000000	0.830000   
353.500000	0.718000   
354.000000	0.805000   
354.500000	0.821000   
355.000000	0.789000   
355.500000	0.887000   
356.000000	0.972000   
356.500000	1.054000   
357.000000	0.911000   
357.500000	0.848000   
358.000000	1.139000   
358.500000	1.055000   
359.000000	0.900000   
359.500000	1.082000   
360.000000	1.132000   
360.500000	1.034000   
361.000000	1.101000   
361.500000	1.075000   
362.000000	1.008000   
362.500000	1.039000   
363.000000	1.097000   
363.500000	1.020000   
364.000000	1.061000   
364.500000	1.105000   
365.000000	1.237000   
365.500000	1.153000   
366.000000	1.217000   
366.500000	1.181000   
367.000000	1.236000   
367.500000	1.166000   
368.000000	1.302000   
368.500000	1.286000   
369.000000	1.309000   
369.500000	1.387000   
370.000000	1.349000   
370.500000	1.399000   
371.000000	1.366000   
371.500000	1.366000   
372.000000	1.574000   
372.500000	1.603000   
373.000000	1.447000   
373.500000	1.396000   
374.000000	1.512000   
374.500000	1.446000   
375.000000	1.696000   
375.500000	1.749000   
376.000000	1.610000   
376.500000	1.618000   
377.000000	1.728000   
377.500000	2.000000   
378.000000	1.854000   
378.500000	1.949000   
379.000000	1.932000   
379.500000	2.022000   
380.000000	1.974000   
380.500000	1.974000   
381.000000	1.976000   
381.500000	2.077000   
382.000000	2.013000   
382.500000	2.074000   
383.000000	2.151000   
383.500000	2.118000   
384.000000	2.097000   
384.500000	2.170000   
385.000000	2.586000   
385.500000	2.470000   
386.000000	2.578000   
386.500000	2.571000   
387.000000	2.643000   
387.500000	2.772000   
388.000000	2.937000   
388.500000	2.864000   
389.000000	2.790000   
389.500000	2.764000   
390.000000	2.798000   
390.500000	3.043000   
391.000000	2.981000   
391.500000	3.214000   
392.000000	2.975000   
392.500000	3.076000   
393.000000	3.390000   
393.500000	3.375000   
394.000000	3.544000   
394.500000	3.421000   
395.000000	3.363000   
395.500000	3.671000   
396.000000	3.971000   
396.500000	3.984000   
397.000000	3.944000   
397.500000	4.241000   
398.000000	4.102000   
398.500000	4.322000   
399.000000	4.225000   
399.500000	4.489000   
400.000000	4.876000   
400.500000	5.208000   
401.000000	5.815000   
401.500000	6.774000   
402.000000	8.221000   
402.500000	9.574000   
403.000000	12.026000  
403.500000	15.319000  
404.000000	19.726000  
404.500000	25.169000  
405.000000	33.155000  
405.500000	41.082000  
406.000000	52.548000  
406.500000	66.249000  
407.000000	83.836000  
407.500000	104.221000 
408.000000	127.365000 
408.500000	156.814000 
409.000000	194.625000 
409.500000	228.224000 
410.000000	269.181000 
410.500000	312.020000 
411.000000	358.106000 
411.500000	411.781000 
412.000000	512.067000 
412.500000	523.469000 
413.000000	578.931000 
413.500000	628.477000 
414.000000	680.010000 
414.500000	732.467000 
415.000000	774.207000 
415.500000	824.278000 
416.000000	869.916000 
416.500000	906.708000 
417.000000	937.865000 
417.500000	986.304999 
418.000000	999.999000 
418.500000	999.999000 
419.000000	999.999000 
419.500000	999.999000 
420.000000	999.999000 
420.500000	999.999000 
421.000000	999.999000 
421.500000	999.999000 
422.000000	999.999000 
422.500000	999.999000 
423.000000	999.999000 
423.500000	999.999000 
424.000000	999.999000 
424.500000	999.999000 
425.000000	982.354000 
425.500000	945.500000 
426.000000	906.506999 
426.500000	872.482999 
427.000000	823.373000 
427.500000	788.165000 
428.000000	729.250000 
428.500000	671.051000 
429.000000	624.833999 
429.500000	524.221000 
430.000000	516.214000 
430.500000	415.095000 
431.000000	403.828000 
431.500000	348.565000 
432.000000	300.673000 
432.500000	262.792000 
433.000000	218.630000 
433.500000	186.911000 
434.000000	151.300000 
434.500000	121.134000 
435.000000	98.160000  
435.500000	82.572000  
436.000000	65.126000  
436.500000	54.294000  
437.000000	43.718000  
437.500000	36.181000  
438.000000	28.133000  
438.500000	24.530000  
439.000000	20.808000  
439.500000	17.776000  
440.000000	15.546000  
440.500000	14.773000  
441.000000	13.566000  
441.500000	13.426000  
442.000000	13.120000  
442.500000	12.455000  
443.000000	12.974000  
443.500000	13.186000  
444.000000	12.598000  
444.500000	12.929000  
445.000000	13.557000  
445.500000	13.126000  
446.000000	13.267000  
446.500000	13.188000  
447.000000	13.033000  
447.500000	13.594000  
448.000000	13.261000  
448.500000	13.495000  
449.000000	13.523000  
449.500000	13.765000  
450.000000	13.522000  
450.500000	13.885000  
451.000000	14.159000  
451.500000	13.876000  
452.000000	14.107000  
452.500000	13.947000  
453.000000	13.905000  
453.500000	13.830000  
454.000000	13.759000  
454.500000	14.124000  
455.000000	14.030000  
455.500000	14.418000  
456.000000	14.356000  
456.500000	14.671000  
457.000000	14.538000  
457.500000	14.123000  
458.000000	14.639000  
458.500000	14.313000  
459.000000	15.019000  
459.500000	14.905000  
460.000000	14.235000  
460.500000	14.365000  
461.000000	14.488000  
461.500000	14.361000  
462.000000	14.723000  
462.500000	14.648000  
463.000000	15.080000  
463.500000	15.591000  
464.000000	15.638000  
464.500000	14.872000  
465.000000	15.156000  
465.500000	15.469000  
466.000000	15.041000  
466.500000	15.235000  
467.000000	15.984000  
467.500000	15.393000  
468.000000	15.406000  
468.500000	15.987000  
469.000000	15.900000  
469.500000	16.657000  
470.000000	16.439000  
470.500000	16.541000  
471.000000	17.030000  
471.500000	16.898000  
472.000000	16.734000  
472.500000	17.589000  
473.000000	17.721000  
473.500000	17.470000  
474.000000	17.659000  
474.500000	18.324000  
475.000000	18.354000  
475.500000	18.832000  
476.000000	19.018000  
476.500000	19.691000  
477.000000	20.067000  
477.500000	19.560000  
478.000000	20.686000  
478.500000	20.458000  
479.000000	21.198000  
479.500000	21.628000  
480.000000	22.865000  
480.500000	23.433000  
481.000000	24.165000  
481.500000	25.242000  
482.000000	25.050000  
482.500000	25.585000  
483.000000	26.254000  
483.500000	26.576000  
484.000000	27.267000  
484.500000	27.354000  
485.000000	28.456000  
485.500000	29.315000  
486.000000	30.042000  
486.500000	29.775000  
487.000000	29.583000  
487.500000	30.998000  
488.000000	31.229000  
488.500000	31.417000  
489.000000	31.618000  
489.500000	31.729000  
490.000000	32.495000  
490.500000	32.680000  
491.000000	32.264000  
491.500000	33.013000  
492.000000	32.673000  
492.500000	32.854000  
493.000000	32.335000  
493.500000	31.658000  
494.000000	32.014000  
494.500000	32.275000  
495.000000	32.330000  
495.500000	32.298000  
496.000000	31.539000  
496.500000	31.121000  
497.000000	30.759000  
497.500000	30.113000  
498.000000	29.504000  
498.500000	28.743000  
499.000000	29.370000  
499.500000	28.838000  
500.000000	28.353000  
500.500000	27.359000  
501.000000	27.643000  
501.500000	27.144000  
502.000000	27.283000  
502.500000	25.895000  
503.000000	25.595000  
503.500000	25.001000  
504.000000	25.048000  
504.500000	25.272000  
505.000000	24.841000  
505.500000	23.790000  
506.000000	23.619000  
506.500000	22.968000  
507.000000	22.836000  
507.500000	23.463000  
508.000000	22.443000  
508.500000	22.883000  
509.000000	22.779000  
509.500000	21.989000  
510.000000	22.146000  
510.500000	21.806000  
511.000000	21.470000  
511.500000	20.896000  
512.000000	21.310000  
512.500000	21.280000  
513.000000	21.781000  
513.500000	21.670000  
514.000000	20.838000  
514.500000	20.756000  
515.000000	20.523000  
515.500000	20.569000  
516.000000	20.065000  
516.500000	19.878000  
517.000000	20.230000  
517.500000	19.757000  
518.000000	20.368000  
518.500000	19.572000  
519.000000	19.790000  
519.500000	19.484000  
520.000000	19.776000  
520.500000	20.166000  
521.000000	20.251000  
521.500000	18.518000  
522.000000	19.030000  
522.500000	19.222000  
523.000000	18.763000  
523.500000	18.076000  
524.000000	17.466000  
524.500000	17.997000  
525.000000	18.438000  
525.500000	18.252000  
526.000000	18.061000  
526.500000	17.597000  
527.000000	17.710000  
527.500000	17.578000  
528.000000	16.830000  
528.500000	17.142000  
529.000000	16.878000  
529.500000	16.522000  
530.000000	17.115000  
530.500000	16.440000  
531.000000	16.251000  
531.500000	15.525000  
532.000000	15.520000  
532.500000	15.924000  
533.000000	16.208000  
533.500000	14.988000  
534.000000	14.789000  
534.500000	14.727000  
535.000000	14.863000  
535.500000	14.607000  
536.000000	14.888000  
536.500000	14.265000  
537.000000	13.729000  
537.500000	14.258000  
538.000000	14.134000  
538.500000	14.049000  
539.000000	13.675000  
539.500000	13.504000  
540.000000	13.564000  
540.500000	13.481000  
541.000000	13.163000  
541.500000	12.665000  
542.000000	12.670000  
542.500000	12.473000  
543.000000	12.555000  
543.500000	11.805000  
544.000000	11.790000  
544.500000	11.897000  
545.000000	11.930000  
545.500000	12.196000  
546.000000	11.284000  
546.500000	11.367000  
547.000000	11.496000  
547.500000	11.088000  
548.000000	11.118000  
548.500000	10.920000  

