PE FL                   SPECTRUM    ASCII       PEDS        1.60        
  -1
0159FE~1.SP
19/01/24
13:09:23.00
19/01/24
13:09:23.00


548.500000
1









LS45
315.00
10.00
10.00
SCAN
1
16
100
100
0
600
0
1
0
1
7
ON
550 545 
0 0 0
#HDR
-1
-1
#GR
NM
INT 
0.00002384185791015625
0.0
230.000000
0.500000
638
8
999.999000
0.553000
#DATA
230.000000	0.683000   
230.500000	0.686000   
231.000000	0.816999   
231.500000	0.906000   
232.000000	0.889000   
232.500000	0.788000   
233.000000	0.800000   
233.500000	0.777000   
234.000000	0.553000   
234.500000	0.805000   
235.000000	0.790000   
235.500000	0.780000   
236.000000	0.768000   
236.500000	0.910000   
237.000000	0.929000   
237.500000	0.764000   
238.000000	0.899000   
238.500000	0.912000   
239.000000	0.677000   
239.500000	0.729000   
240.000000	0.704000   
240.500000	0.791000   
241.000000	1.057000   
241.500000	1.122000   
242.000000	1.142000   
242.500000	0.840000   
243.000000	0.937000   
243.500000	0.995000   
244.000000	0.802000   
244.500000	0.890000   
245.000000	0.910000   
245.500000	0.999000   
246.000000	1.044000   
246.500000	1.023000   
247.000000	0.849000   
247.500000	1.044000   
248.000000	1.044000   
248.500000	1.109000   
249.000000	1.133000   
249.500000	0.945000   
250.000000	0.963000   
250.500000	1.012000   
251.000000	1.033000   
251.500000	0.882000   
252.000000	0.962000   
252.500000	1.199000   
253.000000	1.000000   
253.500000	1.090000   
254.000000	0.968000   
254.500000	1.140000   
255.000000	1.039000   
255.500000	1.168000   
256.000000	1.041000   
256.500000	1.011000   
257.000000	1.449000   
257.500000	1.210000   
258.000000	1.167000   
258.500000	1.169000   
259.000000	1.235000   
259.500000	1.272000   
260.000000	1.262000   
260.500000	1.266000   
261.000000	1.423000   
261.500000	1.407000   
262.000000	1.323000   
262.500000	1.437000   
263.000000	1.373000   
263.500000	1.307000   
264.000000	1.463000   
264.500000	1.497000   
265.000000	1.410000   
265.500000	1.436000   
266.000000	1.417000   
266.500000	1.818000   
267.000000	1.559000   
267.500000	1.657000   
268.000000	1.542000   
268.500000	1.480000   
269.000000	1.531000   
269.500000	1.748000   
270.000000	1.763000   
270.500000	1.903000   
271.000000	1.803000   
271.500000	1.798000   
272.000000	1.886000   
272.500000	2.048000   
273.000000	1.699000   
273.500000	1.827000   
274.000000	2.235000   
274.500000	2.135000   
275.000000	2.112000   
275.500000	2.465000   
276.000000	2.184000   
276.500000	2.243000   
277.000000	2.295000   
277.500000	2.754000   
278.000000	2.630000   
278.500000	2.563000   
279.000000	3.119000   
279.500000	3.048000   
280.000000	2.865000   
280.500000	2.864000   
281.000000	3.219000   
281.500000	3.391000   
282.000000	3.126000   
282.500000	3.338000   
283.000000	3.275000   
283.500000	3.605000   
284.000000	3.731000   
284.500000	4.070000   
285.000000	3.809000   
285.500000	3.686000   
286.000000	4.218000   
286.500000	4.208000   
287.000000	4.292000   
287.500000	4.531000   
288.000000	4.561000   
288.500000	4.995000   
289.000000	5.239000   
289.500000	5.534000   
290.000000	5.557000   
290.500000	5.732000   
291.000000	6.579000   
291.500000	7.188000   
292.000000	8.266000   
292.500000	9.423000   
293.000000	11.749000  
293.500000	13.653000  
294.000000	16.263000  
294.500000	19.799000  
295.000000	25.458000  
295.500000	31.342000  
296.000000	40.153000  
296.500000	50.279000  
297.000000	62.703000  
297.500000	78.923000  
298.000000	93.867000  
298.500000	115.092000 
299.000000	137.886000 
299.500000	170.960000 
300.000000	203.069000 
300.500000	242.798000 
301.000000	282.028000 
301.500000	324.539000 
302.000000	368.014000 
302.500000	474.199000 
303.000000	481.358000 
303.500000	584.745000 
304.000000	594.823000 
304.500000	711.016000 
305.000000	720.856000 
305.500000	836.030999 
306.000000	847.194000 
306.500000	904.043000 
307.000000	999.999000 
307.500000	999.999000 
308.000000	999.999000 
308.500000	999.999000 
309.000000	999.999000 
309.500000	999.999000 
310.000000	999.999000 
310.500000	999.999000 
311.000000	999.999000 
311.500000	999.999000 
312.000000	999.999000 
312.500000	999.999000 
313.000000	999.999000 
313.500000	999.999000 
314.000000	999.999000 
314.500000	999.999000 
315.000000	999.999000 
315.500000	999.999000 
316.000000	999.999000 
316.500000	999.999000 
317.000000	999.999000 
317.500000	999.999000 
318.000000	987.776000 
318.500000	879.982999 
319.000000	867.412000 
319.500000	733.868000 
320.000000	722.480000 
320.500000	608.347000 
321.000000	597.611000 
321.500000	482.833000 
322.000000	472.773000 
322.500000	366.398000 
323.000000	358.541000 
323.500000	315.019000 
324.000000	258.956000 
324.500000	220.083000 
325.000000	182.817000 
325.500000	158.685000 
326.000000	129.944000 
326.500000	108.448000 
327.000000	87.929000  
327.500000	74.590999  
328.000000	59.633000  
328.500000	50.899000  
329.000000	41.565000  
329.500000	36.201000  
330.000000	31.989000  
330.500000	29.176000  
331.000000	27.616000  
331.500000	26.481000  
332.000000	27.211000  
332.500000	27.949000  
333.000000	28.641000  
333.500000	30.666000  
334.000000	30.297000  
334.500000	32.747000  
335.000000	33.771000  
335.500000	37.995000  
336.000000	39.580000  
336.500000	42.796000  
337.000000	46.326000  
337.500000	51.364000  
338.000000	52.209000  
338.500000	55.394000  
339.000000	60.019000  
339.500000	63.828000  
340.000000	67.364000  
340.500000	70.313999  
341.000000	72.875000  
341.500000	77.566999  
342.000000	83.340999  
342.500000	86.995000  
343.000000	90.105999  
343.500000	94.496000  
344.000000	97.952000  
344.500000	101.501000 
345.000000	104.006000 
345.500000	107.243000 
346.000000	108.509000 
346.500000	111.209000 
347.000000	114.720000 
347.500000	116.682000 
348.000000	118.810000 
348.500000	119.078000 
349.000000	118.652000 
349.500000	118.524000 
350.000000	117.839000 
350.500000	116.591000 
351.000000	114.851000 
351.500000	112.439000 
352.000000	110.968000 
352.500000	112.382000 
353.000000	107.738000 
353.500000	106.393000 
354.000000	104.686000 
354.500000	100.990000 
355.000000	97.060000  
355.500000	93.277000  
356.000000	91.178000  
356.500000	89.331999  
357.000000	86.659000  
357.500000	82.787000  
358.000000	81.510000  
358.500000	77.303000  
359.000000	74.087000  
359.500000	72.397000  
360.000000	71.422000  
360.500000	69.691999  
361.000000	67.593999  
361.500000	65.526000  
362.000000	63.558000  
362.500000	62.225000  
363.000000	62.518000  
363.500000	60.287000  
364.000000	61.030000  
364.500000	61.267000  
365.000000	60.291000  
365.500000	58.847000  
366.000000	59.220000  
366.500000	59.655000  
367.000000	59.941000  
367.500000	60.286000  
368.000000	61.195000  
368.500000	61.267000  
369.000000	60.793000  
369.500000	62.013000  
370.000000	62.891000  
370.500000	62.984000  
371.000000	63.646000  
371.500000	64.596000  
372.000000	65.873000  
372.500000	65.525000  
373.000000	67.626000  
373.500000	68.471000  
374.000000	68.488000  
374.500000	71.197000  
375.000000	71.458000  
375.500000	71.328999  
376.000000	72.443000  
376.500000	73.913000  
377.000000	73.377000  
377.500000	75.260000  
378.000000	75.187000  
378.500000	75.566000  
379.000000	76.688999  
379.500000	77.354000  
380.000000	78.018000  
380.500000	78.904000  
381.000000	78.727999  
381.500000	78.818000  
382.000000	81.229000  
382.500000	81.593999  
383.000000	81.042000  
383.500000	81.575999  
384.000000	83.447000  
384.500000	82.417000  
385.000000	82.816999  
385.500000	83.924000  
386.000000	83.738000  
386.500000	83.876000  
387.000000	85.004000  
387.500000	85.139000  
388.000000	85.093999  
388.500000	85.688000  
389.000000	86.336000  
389.500000	86.358000  
390.000000	86.762000  
390.500000	87.702000  
391.000000	86.694999  
391.500000	87.071000  
392.000000	87.977000  
392.500000	87.441000  
393.000000	87.613000  
393.500000	89.089000  
394.000000	88.995000  
394.500000	89.193000  
395.000000	88.035000  
395.500000	88.683000  
396.000000	89.983999  
396.500000	89.767000  
397.000000	90.053000  
397.500000	91.376000  
398.000000	93.388000  
398.500000	91.696000  
399.000000	91.020000  
399.500000	92.428000  
400.000000	93.433000  
400.500000	92.799000  
401.000000	93.306000  
401.500000	91.995000  
402.000000	92.513000  
402.500000	93.507000  
403.000000	92.959999  
403.500000	94.197999  
404.000000	92.586000  
404.500000	93.724999  
405.000000	94.438999  
405.500000	94.217000  
406.000000	93.628000  
406.500000	93.630000  
407.000000	93.239000  
407.500000	93.191000  
408.000000	93.474999  
408.500000	93.611000  
409.000000	94.310000  
409.500000	92.525000  
410.000000	92.482000  
410.500000	94.492000  
411.000000	92.441000  
411.500000	91.798000  
412.000000	92.361999  
412.500000	92.221000  
413.000000	91.325000  
413.500000	90.924000  
414.000000	90.188000  
414.500000	89.958000  
415.000000	89.081999  
415.500000	88.580000  
416.000000	89.706000  
416.500000	88.717000  
417.000000	88.918000  
417.500000	89.345000  
418.000000	88.131000  
418.500000	86.155000  
419.000000	87.022000  
419.500000	87.436000  
420.000000	87.301000  
420.500000	86.504000  
421.000000	84.572000  
421.500000	83.946000  
422.000000	82.970000  
422.500000	84.261000  
423.000000	81.305000  
423.500000	81.861999  
424.000000	83.299000  
424.500000	82.525000  
425.000000	82.065000  
425.500000	80.476000  
426.000000	81.370000  
426.500000	79.657000  
427.000000	79.508000  
427.500000	78.724000  
428.000000	77.824000  
428.500000	77.529000  
429.000000	77.302000  
429.500000	77.830000  
430.000000	77.980999  
430.500000	76.946000  
431.000000	76.087000  
431.500000	75.340999  
432.000000	77.419000  
432.500000	76.373000  
433.000000	74.705000  
433.500000	75.072000  
434.000000	74.418000  
434.500000	73.772000  
435.000000	74.162000  
435.500000	73.955000  
436.000000	72.982000  
436.500000	72.998000  
437.000000	72.542000  
437.500000	71.287000  
438.000000	71.748000  
438.500000	70.765000  
439.000000	70.497000  
439.500000	70.897000  
440.000000	69.793000  
440.500000	68.968000  
441.000000	68.236999  
441.500000	67.159000  
442.000000	67.116000  
442.500000	66.881000  
443.000000	67.721000  
443.500000	67.220000  
444.000000	65.415000  
444.500000	66.250000  
445.000000	65.587999  
445.500000	66.391000  
446.000000	64.971999  
446.500000	63.138000  
447.000000	63.397000  
447.500000	63.428000  
448.000000	62.970000  
448.500000	63.548000  
449.000000	62.721000  
449.500000	62.194000  
450.000000	62.259000  
450.500000	60.537000  
451.000000	60.251000  
451.500000	58.870000  
452.000000	58.952000  
452.500000	57.829000  
453.000000	57.317000  
453.500000	57.850000  
454.000000	58.567000  
454.500000	56.259000  
455.000000	56.090000  
455.500000	56.559000  
456.000000	55.022000  
456.500000	55.397000  
457.000000	53.608000  
457.500000	53.227000  
458.000000	53.806000  
458.500000	53.050000  
459.000000	52.643000  
459.500000	51.326000  
460.000000	50.908000  
460.500000	51.591000  
461.000000	51.308000  
461.500000	48.839000  
462.000000	49.613000  
462.500000	48.454000  
463.000000	47.257000  
463.500000	47.478000  
464.000000	47.680000  
464.500000	45.743000  
465.000000	45.575000  
465.500000	45.615000  
466.000000	45.792000  
466.500000	46.481000  
467.000000	46.338000  
467.500000	45.263000  
468.000000	44.680000  
468.500000	43.560000  
469.000000	43.548000  
469.500000	43.021000  
470.000000	42.691000  
470.500000	41.606000  
471.000000	41.428000  
471.500000	40.286000  
472.000000	41.851000  
472.500000	40.150000  
473.000000	40.378000  
473.500000	40.104000  
474.000000	39.451000  
474.500000	39.217000  
475.000000	39.216000  
475.500000	38.693000  
476.000000	38.135000  
476.500000	37.603000  
477.000000	37.978000  
477.500000	36.976000  
478.000000	36.948000  
478.500000	35.946000  
479.000000	35.743000  
479.500000	36.220000  
480.000000	35.555000  
480.500000	36.038000  
481.000000	35.229000  
481.500000	34.597000  
482.000000	34.914000  
482.500000	34.644000  
483.000000	33.926000  
483.500000	32.944000  
484.000000	32.164000  
484.500000	32.544000  
485.000000	32.034000  
485.500000	31.646000  
486.000000	31.539000  
486.500000	31.429000  
487.000000	31.607000  
487.500000	30.555000  
488.000000	30.847000  
488.500000	30.348000  
489.000000	30.201000  
489.500000	29.727000  
490.000000	28.994000  
490.500000	29.745000  
491.000000	29.034000  
491.500000	28.082000  
492.000000	27.927000  
492.500000	29.165000  
493.000000	26.986000  
493.500000	28.160000  
494.000000	27.166000  
494.500000	26.981000  
495.000000	26.771000  
495.500000	25.598000  
496.000000	26.129000  
496.500000	25.906000  
497.000000	25.910000  
497.500000	26.017000  
498.000000	25.201000  
498.500000	25.012000  
499.000000	24.689000  
499.500000	24.255000  
500.000000	23.434000  
500.500000	22.672000  
501.000000	23.541000  
501.500000	23.222000  
502.000000	22.094000  
502.500000	22.785000  
503.000000	22.230000  
503.500000	22.075000  
504.000000	21.493000  
504.500000	22.378000  
505.000000	21.965000  
505.500000	21.349000  
506.000000	20.800000  
506.500000	20.717000  
507.000000	19.588000  
507.500000	20.170000  
508.000000	19.592000  
508.500000	19.778000  
509.000000	19.475000  
509.500000	19.274000  
510.000000	18.812000  
510.500000	17.826000  
511.000000	18.333000  
511.500000	18.437000  
512.000000	18.038000  
512.500000	18.123000  
513.000000	17.518000  
513.500000	17.030000  
514.000000	16.949000  
514.500000	17.751000  
515.000000	16.400000  
515.500000	17.167000  
516.000000	16.814000  
516.500000	16.806000  
517.000000	16.531000  
517.500000	16.651000  
518.000000	16.600000  
518.500000	16.366000  
519.000000	16.414000  
519.500000	16.031000  
520.000000	15.555000  
520.500000	15.780000  
521.000000	15.472000  
521.500000	15.061000  
522.000000	14.940000  
522.500000	14.629000  
523.000000	14.158000  
523.500000	14.650000  
524.000000	14.073000  
524.500000	13.196000  
525.000000	13.541000  
525.500000	13.760000  
526.000000	13.837000  
526.500000	12.842000  
527.000000	12.960000  
527.500000	13.045000  
528.000000	13.516000  
528.500000	12.731000  
529.000000	11.850000  
529.500000	12.074000  
530.000000	12.300000  
530.500000	11.636000  
531.000000	10.976000  
531.500000	11.638000  
532.000000	11.355000  
532.500000	11.376000  
533.000000	11.914000  
533.500000	11.505000  
534.000000	11.232000  
534.500000	10.891000  
535.000000	10.697000  
535.500000	10.509000  
536.000000	10.652000  
536.500000	10.874000  
537.000000	10.586000  
537.500000	10.009000  
538.000000	10.328000  
538.500000	9.845000   
539.000000	10.188000  
539.500000	9.881000   
540.000000	9.391000   
540.500000	9.443000   
541.000000	10.178000  
541.500000	9.391999   
542.000000	9.911000   
542.500000	8.957000   
543.000000	9.162000   
543.500000	8.935000   
544.000000	8.614000   
544.500000	9.134000   
545.000000	8.964000   
545.500000	8.332000   
546.000000	8.537000   
546.500000	8.502000   
547.000000	8.388000   
547.500000	8.173000   
548.000000	7.996000   
548.500000	8.173000   

