PE FL                   SPECTRUM    ASCII       PEDS        1.60        
  -1
0139F6~1.SP
19/01/24
13:04:52.00
19/01/24
13:04:52.00


548.500000
1









LS45
285.00
10.00
10.00
SCAN
1
16
100
100
0
600
0
1
0
1
7
ON
550 545 
0 0 0
#HDR
-1
-1
#GR
NM
INT 
0.00002384185791015625
0.0
230.000000
0.500000
638
8
921.521000
1.104000
#DATA
230.000000	1.158000   
230.500000	1.291000   
231.000000	1.393000   
231.500000	1.463000   
232.000000	1.469000   
232.500000	1.350000   
233.000000	1.367000   
233.500000	1.424000   
234.000000	1.512000   
234.500000	1.407000   
235.000000	1.104000   
235.500000	1.209000   
236.000000	1.140000   
236.500000	1.134000   
237.000000	1.520000   
237.500000	1.467000   
238.000000	1.326000   
238.500000	1.302000   
239.000000	1.424000   
239.500000	1.499000   
240.000000	1.531000   
240.500000	1.520000   
241.000000	1.381000   
241.500000	1.428000   
242.000000	1.473000   
242.500000	1.604000   
243.000000	1.484000   
243.500000	1.737000   
244.000000	1.388000   
244.500000	1.746000   
245.000000	1.683000   
245.500000	1.499000   
246.000000	1.564000   
246.500000	1.888000   
247.000000	1.883000   
247.500000	1.969000   
248.000000	1.803000   
248.500000	1.591000   
249.000000	1.750000   
249.500000	2.098000   
250.000000	2.138000   
250.500000	1.803000   
251.000000	1.923000   
251.500000	1.997000   
252.000000	2.075000   
252.500000	1.671000   
253.000000	2.214000   
253.500000	2.589000   
254.000000	2.838000   
254.500000	2.858000   
255.000000	2.875000   
255.500000	2.642000   
256.000000	2.720000   
256.500000	2.615000   
257.000000	3.003000   
257.500000	2.951000   
258.000000	3.174000   
258.500000	3.062000   
259.000000	3.350000   
259.500000	3.416000   
260.000000	3.412000   
260.500000	4.085000   
261.000000	4.533000   
261.500000	4.473000   
262.000000	5.134000   
262.500000	5.601000   
263.000000	6.122000   
263.500000	7.518000   
264.000000	10.025000  
264.500000	11.504000  
265.000000	14.159000  
265.500000	18.313000  
266.000000	23.201000  
266.500000	27.781000  
267.000000	36.760000  
267.500000	43.711000  
268.000000	55.245000  
268.500000	66.218000  
269.000000	83.688000  
269.500000	99.239000  
270.000000	118.481000 
270.500000	136.628000 
271.000000	154.593000 
271.500000	182.241000 
272.000000	208.607000 
272.500000	246.406000 
273.000000	276.905000 
273.500000	322.833000 
274.000000	350.859000 
274.500000	396.936000 
275.000000	440.916000 
275.500000	486.198000 
276.000000	526.295000 
276.500000	572.771000 
277.000000	620.466000 
277.500000	659.378000 
278.000000	701.596000 
278.500000	733.635000 
279.000000	772.535999 
279.500000	799.953000 
280.000000	826.048000 
280.500000	856.937000 
281.000000	878.611000 
281.500000	896.495000 
282.000000	903.428000 
282.500000	912.100000 
283.000000	921.521000 
283.500000	920.438000 
284.000000	908.405000 
284.500000	891.313000 
285.000000	874.990000 
285.500000	847.804000 
286.000000	829.420000 
286.500000	805.503000 
287.000000	773.571000 
287.500000	736.577000 
288.000000	701.831000 
288.500000	664.380000 
289.000000	618.482000 
289.500000	584.624000 
290.000000	535.923000 
290.500000	500.693000 
291.000000	454.996000 
291.500000	416.819000 
292.000000	373.744000 
292.500000	340.315000 
293.000000	302.298000 
293.500000	268.215000 
294.000000	238.923000 
294.500000	215.414000 
295.000000	191.844000 
295.500000	164.194000 
296.000000	144.276000 
296.500000	125.949000 
297.000000	114.572000 
297.500000	99.128000  
298.000000	91.028000  
298.500000	84.380000  
299.000000	76.488000  
299.500000	73.438000  
300.000000	71.158000  
300.500000	70.531000  
301.000000	68.072000  
301.500000	69.935000  
302.000000	73.014000  
302.500000	74.486999  
303.000000	77.029000  
303.500000	80.637000  
304.000000	87.176000  
304.500000	92.040000  
305.000000	97.761000  
305.500000	101.881000 
306.000000	107.703000 
306.500000	113.326000 
307.000000	117.028000 
307.500000	123.685000 
308.000000	127.578000 
308.500000	133.538000 
309.000000	138.712000 
309.500000	147.437000 
310.000000	151.812000 
310.500000	155.050000 
311.000000	157.441000 
311.500000	161.325000 
312.000000	164.729000 
312.500000	167.178000 
313.000000	167.456000 
313.500000	172.192000 
314.000000	174.646000 
314.500000	177.275000 
315.000000	177.913000 
315.500000	177.816000 
316.000000	177.156000 
316.500000	175.566000 
317.000000	174.192000 
317.500000	173.304000 
318.000000	173.358000 
318.500000	171.754000 
319.000000	170.568000 
319.500000	169.006000 
320.000000	163.675000 
320.500000	163.581000 
321.000000	158.380000 
321.500000	153.999000 
322.000000	155.280000 
322.500000	152.084000 
323.000000	151.723000 
323.500000	150.444000 
324.000000	148.675000 
324.500000	144.865000 
325.000000	147.989000 
325.500000	146.099000 
326.000000	146.009000 
326.500000	145.564000 
327.000000	143.832000 
327.500000	144.449000 
328.000000	144.357000 
328.500000	148.223000 
329.000000	151.283000 
329.500000	149.019000 
330.000000	152.115000 
330.500000	152.261000 
331.000000	153.450000 
331.500000	155.914000 
332.000000	156.762000 
332.500000	158.553000 
333.000000	161.832000 
333.500000	164.878000 
334.000000	166.154000 
334.500000	165.828000 
335.000000	170.151000 
335.500000	172.488000 
336.000000	170.650000 
336.500000	175.005000 
337.000000	178.184000 
337.500000	181.196000 
338.000000	179.439000 
338.500000	181.162000 
339.000000	182.493000 
339.500000	185.256000 
340.000000	187.907000 
340.500000	188.204000 
341.000000	191.797000 
341.500000	191.214000 
342.000000	194.445000 
342.500000	195.330000 
343.000000	196.405000 
343.500000	197.175000 
344.000000	200.290000 
344.500000	200.792000 
345.000000	204.163000 
345.500000	204.258000 
346.000000	205.409000 
346.500000	205.267000 
347.000000	204.340000 
347.500000	207.283000 
348.000000	207.337000 
348.500000	208.856000 
349.000000	208.944000 
349.500000	213.203000 
350.000000	213.585000 
350.500000	212.441000 
351.000000	213.974000 
351.500000	212.341000 
352.000000	212.357000 
352.500000	211.725000 
353.000000	213.731000 
353.500000	211.153000 
354.000000	216.018000 
354.500000	218.608000 
355.000000	216.607000 
355.500000	214.000000 
356.000000	212.486000 
356.500000	212.941000 
357.000000	210.862000 
357.500000	210.093000 
358.000000	208.118000 
358.500000	207.691000 
359.000000	209.067000 
359.500000	210.756000 
360.000000	206.917000 
360.500000	207.571000 
361.000000	207.655000 
361.500000	206.797000 
362.000000	203.890000 
362.500000	198.106000 
363.000000	201.567000 
363.500000	202.710000 
364.000000	204.298000 
364.500000	200.321000 
365.000000	198.020000 
365.500000	198.071000 
366.000000	198.271000 
366.500000	195.665000 
367.000000	195.519000 
367.500000	196.080000 
368.000000	193.736000 
368.500000	190.151000 
369.000000	190.584000 
369.500000	191.864000 
370.000000	190.446000 
370.500000	191.665000 
371.000000	191.809000 
371.500000	187.731000 
372.000000	185.999000 
372.500000	185.877000 
373.000000	185.902000 
373.500000	185.237000 
374.000000	183.117000 
374.500000	182.090000 
375.000000	182.937000 
375.500000	182.795000 
376.000000	180.394000 
376.500000	178.469000 
377.000000	177.324000 
377.500000	175.319000 
378.000000	176.488000 
378.500000	173.963000 
379.000000	173.856000 
379.500000	172.951000 
380.000000	173.286000 
380.500000	172.801000 
381.000000	166.713000 
381.500000	168.692000 
382.000000	166.249000 
382.500000	164.421000 
383.000000	161.775000 
383.500000	163.190000 
384.000000	162.065000 
384.500000	161.216000 
385.000000	159.946000 
385.500000	157.844000 
386.000000	157.527000 
386.500000	156.651000 
387.000000	152.213000 
387.500000	152.808000 
388.000000	151.520000 
388.500000	149.221000 
389.000000	149.067000 
389.500000	148.736000 
390.000000	146.129000 
390.500000	146.630000 
391.000000	146.410000 
391.500000	143.709000 
392.000000	140.567000 
392.500000	143.195000 
393.000000	140.457000 
393.500000	137.738000 
394.000000	139.967000 
394.500000	137.846000 
395.000000	136.737000 
395.500000	135.154000 
396.000000	136.160000 
396.500000	132.391000 
397.000000	132.896000 
397.500000	132.936000 
398.000000	130.841000 
398.500000	132.060000 
399.000000	130.359000 
399.500000	131.337000 
400.000000	130.045000 
400.500000	127.615000 
401.000000	125.876000 
401.500000	129.012000 
402.000000	125.824000 
402.500000	125.036000 
403.000000	125.148000 
403.500000	126.547000 
404.000000	125.251000 
404.500000	123.922000 
405.000000	122.350000 
405.500000	120.610000 
406.000000	119.944000 
406.500000	119.643000 
407.000000	119.083000 
407.500000	119.661000 
408.000000	117.868000 
408.500000	115.913000 
409.000000	114.810000 
409.500000	115.563000 
410.000000	114.099000 
410.500000	113.415000 
411.000000	112.828000 
411.500000	113.272000 
412.000000	111.897000 
412.500000	111.074000 
413.000000	111.434000 
413.500000	109.393000 
414.000000	108.089000 
414.500000	107.733000 
415.000000	107.242000 
415.500000	105.588000 
416.000000	106.180000 
416.500000	105.147000 
417.000000	104.177000 
417.500000	104.421000 
418.000000	102.155000 
418.500000	100.732000 
419.000000	100.196000 
419.500000	101.968000 
420.000000	98.593000  
420.500000	98.206999  
421.000000	96.617999  
421.500000	96.709999  
422.000000	96.387000  
422.500000	95.199000  
423.000000	95.449000  
423.500000	94.233999  
424.000000	92.979000  
424.500000	92.468000  
425.000000	93.599999  
425.500000	93.956999  
426.000000	92.551000  
426.500000	90.178000  
427.000000	90.845000  
427.500000	89.194000  
428.000000	88.611999  
428.500000	87.621000  
429.000000	87.956000  
429.500000	88.650000  
430.000000	87.465000  
430.500000	87.669000  
431.000000	87.416000  
431.500000	87.694000  
432.000000	85.084000  
432.500000	82.587999  
433.000000	85.500000  
433.500000	84.190000  
434.000000	83.263000  
434.500000	82.703000  
435.000000	84.044000  
435.500000	84.030000  
436.000000	82.983999  
436.500000	83.900000  
437.000000	83.574000  
437.500000	83.921000  
438.000000	83.715999  
438.500000	81.895000  
439.000000	82.083000  
439.500000	81.616000  
440.000000	81.337000  
440.500000	81.739999  
441.000000	82.093000  
441.500000	80.742000  
442.000000	82.160000  
442.500000	80.161000  
443.000000	80.539000  
443.500000	79.480000  
444.000000	79.877000  
444.500000	79.205000  
445.000000	77.920000  
445.500000	77.950999  
446.000000	78.641000  
446.500000	77.503000  
447.000000	77.935000  
447.500000	76.934000  
448.000000	76.808000  
448.500000	76.425000  
449.000000	75.553000  
449.500000	75.645000  
450.000000	75.354000  
450.500000	74.063999  
451.000000	74.491000  
451.500000	74.239000  
452.000000	74.181000  
452.500000	73.256000  
453.000000	72.697999  
453.500000	73.393000  
454.000000	71.575999  
454.500000	71.668000  
455.000000	70.655000  
455.500000	70.578000  
456.000000	69.761000  
456.500000	68.913000  
457.000000	70.610000  
457.500000	69.911000  
458.000000	69.104000  
458.500000	69.577000  
459.000000	69.346999  
459.500000	69.650000  
460.000000	66.592000  
460.500000	66.947999  
461.000000	68.476000  
461.500000	65.902000  
462.000000	65.035000  
462.500000	63.605000  
463.000000	64.773000  
463.500000	65.117999  
464.000000	65.099000  
464.500000	64.831000  
465.000000	63.569000  
465.500000	63.147000  
466.000000	62.787000  
466.500000	62.384000  
467.000000	63.300000  
467.500000	62.133000  
468.000000	61.325000  
468.500000	63.241000  
469.000000	63.223000  
469.500000	63.795000  
470.000000	61.175000  
470.500000	60.684000  
471.000000	60.206000  
471.500000	61.250000  
472.000000	62.315000  
472.500000	60.267000  
473.000000	59.978000  
473.500000	60.173000  
474.000000	58.530000  
474.500000	60.436000  
475.000000	58.994000  
475.500000	58.696000  
476.000000	59.603000  
476.500000	59.445000  
477.000000	59.566000  
477.500000	58.380000  
478.000000	58.179000  
478.500000	58.127000  
479.000000	57.423000  
479.500000	57.956000  
480.000000	58.029000  
480.500000	58.672000  
481.000000	58.761000  
481.500000	56.741000  
482.000000	56.747000  
482.500000	56.462000  
483.000000	56.083000  
483.500000	57.889000  
484.000000	56.216000  
484.500000	55.993000  
485.000000	57.335000  
485.500000	56.983000  
486.000000	57.346000  
486.500000	56.052000  
487.000000	57.364000  
487.500000	57.484000  
488.000000	56.421000  
488.500000	56.689000  
489.000000	57.146000  
489.500000	56.471000  
490.000000	57.015000  
490.500000	56.797000  
491.000000	56.649000  
491.500000	55.963000  
492.000000	57.429000  
492.500000	56.946000  
493.000000	56.065000  
493.500000	55.977000  
494.000000	55.506000  
494.500000	54.507000  
495.000000	53.921000  
495.500000	55.527000  
496.000000	54.987000  
496.500000	53.696000  
497.000000	53.801000  
497.500000	54.203000  
498.000000	54.822000  
498.500000	51.866000  
499.000000	50.721000  
499.500000	52.472000  
500.000000	53.434000  
500.500000	51.949000  
501.000000	51.680000  
501.500000	52.966000  
502.000000	52.064000  
502.500000	52.695000  
503.000000	52.541000  
503.500000	52.196000  
504.000000	50.267000  
504.500000	50.717000  
505.000000	50.503000  
505.500000	48.453000  
506.000000	49.449000  
506.500000	49.908000  
507.000000	48.633000  
507.500000	48.400000  
508.000000	49.041000  
508.500000	48.711000  
509.000000	48.604000  
509.500000	47.432000  
510.000000	48.483000  
510.500000	48.452000  
511.000000	47.145000  
511.500000	47.842000  
512.000000	47.628000  
512.500000	47.738000  
513.000000	46.925000  
513.500000	46.648000  
514.000000	45.248000  
514.500000	44.736000  
515.000000	45.831000  
515.500000	47.057000  
516.000000	45.285000  
516.500000	47.242000  
517.000000	46.696000  
517.500000	44.860000  
518.000000	44.988000  
518.500000	43.864000  
519.000000	45.064000  
519.500000	45.601000  
520.000000	44.809000  
520.500000	44.969000  
521.000000	43.692000  
521.500000	43.951000  
522.000000	42.753000  
522.500000	42.872000  
523.000000	42.667000  
523.500000	43.261000  
524.000000	42.535000  
524.500000	40.538000  
525.000000	40.696000  
525.500000	39.455000  
526.000000	39.773000  
526.500000	40.622000  
527.000000	39.623000  
527.500000	39.622000  
528.000000	37.595000  
528.500000	37.536000  
529.000000	38.587000  
529.500000	38.883000  
530.000000	38.243000  
530.500000	38.070000  
531.000000	38.029000  
531.500000	38.245000  
532.000000	37.921000  
532.500000	36.691000  
533.000000	35.971000  
533.500000	37.147000  
534.000000	37.092000  
534.500000	35.885000  
535.000000	35.876000  
535.500000	35.711000  
536.000000	36.071000  
536.500000	35.259000  
537.000000	36.575000  
537.500000	34.830000  
538.000000	36.126000  
538.500000	37.197000  
539.000000	37.216000  
539.500000	38.929000  
540.000000	39.572000  
540.500000	41.450000  
541.000000	43.139000  
541.500000	47.200000  
542.000000	49.074000  
542.500000	54.025000  
543.000000	58.199000  
543.500000	64.313999  
544.000000	71.343000  
544.500000	82.244000  
545.000000	89.929000  
545.500000	99.778000  
546.000000	110.942000 
546.500000	124.271000 
547.000000	142.195000 
547.500000	162.161000 
548.000000	175.658000 
548.500000	199.771000 

