PE FL                   SPECTRUM    ASCII       PEDS        1.60        
  -1
01550B~1.SP
19/01/24
13:31:15.00
19/01/24
13:31:15.00


548.500000
1









LS45
460.00
10.00
10.00
SCAN
1
16
100
100
0
600
0
1
0
1
7
ON
550 545 
0 0 0
#HDR
-1
-1
#GR
NM
INT 
0.00002384185791015625
0.0
230.000000
0.500000
638
8
881.273000
0.056000
#DATA
230.000000	0.098000   
230.500000	0.089000   
231.000000	0.086999   
231.500000	0.091000   
232.000000	0.086999   
232.500000	0.098000   
233.000000	0.170000   
233.500000	0.073000   
234.000000	0.073000   
234.500000	0.092000   
235.000000	0.104000   
235.500000	0.103000   
236.000000	0.134000   
236.500000	0.116000   
237.000000	0.070000   
237.500000	0.091000   
238.000000	0.056000   
238.500000	0.097000   
239.000000	0.081000   
239.500000	0.126000   
240.000000	0.116000   
240.500000	0.112000   
241.000000	0.154000   
241.500000	0.172000   
242.000000	0.103000   
242.500000	0.123000   
243.000000	0.128000   
243.500000	0.096000   
244.000000	0.107000   
244.500000	0.151000   
245.000000	0.099000   
245.500000	0.140000   
246.000000	0.146000   
246.500000	0.148000   
247.000000	0.142000   
247.500000	0.139000   
248.000000	0.116000   
248.500000	0.132000   
249.000000	0.142000   
249.500000	0.128000   
250.000000	0.132000   
250.500000	0.107000   
251.000000	0.078000   
251.500000	0.126000   
252.000000	0.106000   
252.500000	0.174000   
253.000000	0.129000   
253.500000	0.133000   
254.000000	0.156000   
254.500000	0.173000   
255.000000	0.175000   
255.500000	0.145000   
256.000000	0.184000   
256.500000	0.176000   
257.000000	0.115000   
257.500000	0.195000   
258.000000	0.238000   
258.500000	0.233000   
259.000000	0.157000   
259.500000	0.221000   
260.000000	0.175000   
260.500000	0.180000   
261.000000	0.129000   
261.500000	0.176000   
262.000000	0.142000   
262.500000	0.205000   
263.000000	0.124000   
263.500000	0.161000   
264.000000	0.191000   
264.500000	0.158000   
265.000000	0.129000   
265.500000	0.148000   
266.000000	0.109000   
266.500000	0.134000   
267.000000	0.176000   
267.500000	0.142000   
268.000000	0.161000   
268.500000	0.179000   
269.000000	0.156000   
269.500000	0.132000   
270.000000	0.174000   
270.500000	0.156000   
271.000000	0.172000   
271.500000	0.168000   
272.000000	0.083000   
272.500000	0.116000   
273.000000	0.139000   
273.500000	0.186000   
274.000000	0.092000   
274.500000	0.134000   
275.000000	0.135000   
275.500000	0.104000   
276.000000	0.146000   
276.500000	0.125000   
277.000000	0.206000   
277.500000	0.218000   
278.000000	0.183000   
278.500000	0.142000   
279.000000	0.145000   
279.500000	0.128000   
280.000000	0.162000   
280.500000	0.170000   
281.000000	0.155000   
281.500000	0.202000   
282.000000	0.121000   
282.500000	0.120000   
283.000000	0.123000   
283.500000	0.136000   
284.000000	0.176000   
284.500000	0.254000   
285.000000	0.175000   
285.500000	0.142000   
286.000000	0.160000   
286.500000	0.172000   
287.000000	0.144000   
287.500000	0.203000   
288.000000	0.218000   
288.500000	0.207000   
289.000000	0.161000   
289.500000	0.129000   
290.000000	0.170000   
290.500000	0.228000   
291.000000	0.207000   
291.500000	0.174000   
292.000000	0.180000   
292.500000	0.137000   
293.000000	0.147000   
293.500000	0.173000   
294.000000	0.199000   
294.500000	0.238000   
295.000000	0.195000   
295.500000	0.222000   
296.000000	0.190000   
296.500000	0.173000   
297.000000	0.142000   
297.500000	0.197000   
298.000000	0.162000   
298.500000	0.186000   
299.000000	0.200000   
299.500000	0.255000   
300.000000	0.270000   
300.500000	0.253000   
301.000000	0.147000   
301.500000	0.212000   
302.000000	0.289000   
302.500000	0.202000   
303.000000	0.168000   
303.500000	0.139000   
304.000000	0.173000   
304.500000	0.183000   
305.000000	0.189000   
305.500000	0.250000   
306.000000	0.212000   
306.500000	0.176000   
307.000000	0.206000   
307.500000	0.204000   
308.000000	0.209000   
308.500000	0.184000   
309.000000	0.228000   
309.500000	0.203000   
310.000000	0.203000   
310.500000	0.225000   
311.000000	0.255000   
311.500000	0.282000   
312.000000	0.315000   
312.500000	0.305000   
313.000000	0.261000   
313.500000	0.256000   
314.000000	0.328000   
314.500000	0.293000   
315.000000	0.399000   
315.500000	0.365000   
316.000000	0.304000   
316.500000	0.259000   
317.000000	0.236000   
317.500000	0.252000   
318.000000	0.281000   
318.500000	0.387000   
319.000000	0.371000   
319.500000	0.358000   
320.000000	0.276000   
320.500000	0.358000   
321.000000	0.252000   
321.500000	0.373000   
322.000000	0.343000   
322.500000	0.333000   
323.000000	0.357000   
323.500000	0.369000   
324.000000	0.295000   
324.500000	0.444000   
325.000000	0.425000   
325.500000	0.340000   
326.000000	0.316000   
326.500000	0.379000   
327.000000	0.334000   
327.500000	0.347000   
328.000000	0.313000   
328.500000	0.412000   
329.000000	0.398000   
329.500000	0.313000   
330.000000	0.439000   
330.500000	0.413000   
331.000000	0.425000   
331.500000	0.396000   
332.000000	0.403000   
332.500000	0.376000   
333.000000	0.331000   
333.500000	0.353000   
334.000000	0.297000   
334.500000	0.325000   
335.000000	0.487000   
335.500000	0.510000   
336.000000	0.449000   
336.500000	0.429000   
337.000000	0.428000   
337.500000	0.441000   
338.000000	0.395000   
338.500000	0.404000   
339.000000	0.419000   
339.500000	0.454000   
340.000000	0.393000   
340.500000	0.460000   
341.000000	0.408000   
341.500000	0.417000   
342.000000	0.366000   
342.500000	0.483000   
343.000000	0.437000   
343.500000	0.530000   
344.000000	0.476000   
344.500000	0.461000   
345.000000	0.430000   
345.500000	0.480000   
346.000000	0.508000   
346.500000	0.530000   
347.000000	0.441000   
347.500000	0.488000   
348.000000	0.412000   
348.500000	0.489000   
349.000000	0.441000   
349.500000	0.487000   
350.000000	0.502000   
350.500000	0.511000   
351.000000	0.481000   
351.500000	0.444000   
352.000000	0.448000   
352.500000	0.470000   
353.000000	0.514000   
353.500000	0.518000   
354.000000	0.465000   
354.500000	0.510000   
355.000000	0.515000   
355.500000	0.516000   
356.000000	0.557000   
356.500000	0.555000   
357.000000	0.592000   
357.500000	0.628000   
358.000000	0.590000   
358.500000	0.507000   
359.000000	0.632000   
359.500000	0.655000   
360.000000	0.543000   
360.500000	0.547000   
361.000000	0.530000   
361.500000	0.603000   
362.000000	0.557000   
362.500000	0.565999   
363.000000	0.502000   
363.500000	0.556000   
364.000000	0.584000   
364.500000	0.670000   
365.000000	0.681000   
365.500000	0.646000   
366.000000	0.516000   
366.500000	0.563999   
367.000000	0.653000   
367.500000	0.670000   
368.000000	0.652000   
368.500000	0.580000   
369.000000	0.514000   
369.500000	0.561000   
370.000000	0.566999   
370.500000	0.646000   
371.000000	0.599000   
371.500000	0.670000   
372.000000	0.610000   
372.500000	0.624000   
373.000000	0.588000   
373.500000	0.688999   
374.000000	0.734000   
374.500000	0.598000   
375.000000	0.689999   
375.500000	0.570000   
376.000000	0.636000   
376.500000	0.636000   
377.000000	0.785000   
377.500000	0.650000   
378.000000	0.646000   
378.500000	0.685000   
379.000000	0.717000   
379.500000	0.874000   
380.000000	0.749000   
380.500000	0.781000   
381.000000	0.729000   
381.500000	0.698000   
382.000000	0.727000   
382.500000	0.819000   
383.000000	0.756000   
383.500000	0.708000   
384.000000	0.689999   
384.500000	0.764000   
385.000000	0.830000   
385.500000	0.730000   
386.000000	0.718000   
386.500000	0.797000   
387.000000	0.769000   
387.500000	0.835000   
388.000000	0.798000   
388.500000	0.712000   
389.000000	0.821000   
389.500000	0.804000   
390.000000	0.850000   
390.500000	0.703000   
391.000000	0.762000   
391.500000	1.001000   
392.000000	0.945000   
392.500000	0.868000   
393.000000	0.928000   
393.500000	0.923000   
394.000000	0.933000   
394.500000	1.001000   
395.000000	1.044000   
395.500000	1.078000   
396.000000	0.980000   
396.500000	0.970000   
397.000000	0.885000   
397.500000	1.092000   
398.000000	1.071000   
398.500000	1.050000   
399.000000	0.992000   
399.500000	1.013000   
400.000000	1.215000   
400.500000	1.090000   
401.000000	1.205000   
401.500000	1.147000   
402.000000	1.115000   
402.500000	1.139000   
403.000000	1.144000   
403.500000	1.138000   
404.000000	1.102000   
404.500000	1.309000   
405.000000	1.188000   
405.500000	1.269000   
406.000000	1.269000   
406.500000	1.241000   
407.000000	1.368000   
407.500000	1.276000   
408.000000	1.300000   
408.500000	1.249000   
409.000000	1.523000   
409.500000	1.365000   
410.000000	1.453000   
410.500000	1.638000   
411.000000	1.581000   
411.500000	1.638000   
412.000000	1.529000   
412.500000	1.537000   
413.000000	1.705000   
413.500000	1.732000   
414.000000	1.740000   
414.500000	1.722000   
415.000000	1.763000   
415.500000	1.954000   
416.000000	1.962000   
416.500000	2.004000   
417.000000	1.962000   
417.500000	1.988000   
418.000000	1.956000   
418.500000	2.057000   
419.000000	2.054000   
419.500000	2.147000   
420.000000	2.051000   
420.500000	2.000000   
421.000000	2.000000   
421.500000	2.244000   
422.000000	2.081000   
422.500000	2.291000   
423.000000	2.528000   
423.500000	2.513000   
424.000000	2.517000   
424.500000	2.394000   
425.000000	2.504000   
425.500000	2.715000   
426.000000	2.577000   
426.500000	2.582000   
427.000000	2.580000   
427.500000	2.690000   
428.000000	2.860000   
428.500000	2.645000   
429.000000	2.792000   
429.500000	2.879000   
430.000000	2.880000   
430.500000	3.047000   
431.000000	3.102000   
431.500000	2.991000   
432.000000	3.040000   
432.500000	2.966000   
433.000000	3.268000   
433.500000	3.285000   
434.000000	3.455000   
434.500000	3.592000   
435.000000	3.853000   
435.500000	4.067000   
436.000000	4.216000   
436.500000	5.248000   
437.000000	6.364000   
437.500000	7.138000   
438.000000	9.487000   
438.500000	12.097000  
439.000000	16.231000  
439.500000	20.304000  
440.000000	27.122000  
440.500000	35.245000  
441.000000	46.926000  
441.500000	58.541000  
442.000000	70.893000  
442.500000	86.367000  
443.000000	103.630000 
443.500000	126.551000 
444.000000	154.542000 
444.500000	181.372000 
445.000000	207.090000 
445.500000	241.553000 
446.000000	271.371000 
446.500000	316.443000 
447.000000	357.918000 
447.500000	404.793000 
448.000000	441.521000 
448.500000	490.900000 
449.000000	528.469000 
449.500000	575.923000 
450.000000	609.158000 
450.500000	663.089000 
451.000000	687.056000 
451.500000	725.847000 
452.000000	752.443000 
452.500000	779.904000 
453.000000	802.984000 
453.500000	833.625000 
454.000000	843.452000 
454.500000	860.205000 
455.000000	870.384000 
455.500000	880.159000 
456.000000	881.273000 
456.500000	875.059000 
457.000000	874.554000 
457.500000	867.719000 
458.000000	854.724000 
458.500000	840.102000 
459.000000	824.809999 
459.500000	794.385000 
460.000000	769.505000 
460.500000	745.734000 
461.000000	707.331000 
461.500000	676.675000 
462.000000	634.159000 
462.500000	590.399000 
463.000000	546.856000 
463.500000	507.208000 
464.000000	463.041000 
464.500000	426.694000 
465.000000	371.030000 
465.500000	337.372000 
466.000000	297.795000 
466.500000	268.373000 
467.000000	227.671000 
467.500000	198.880000 
468.000000	159.561000 
468.500000	139.211000 
469.000000	110.127000 
469.500000	90.583000  
470.000000	70.572999  
470.500000	56.286000  
471.000000	43.202000  
471.500000	35.459000  
472.000000	28.273000  
472.500000	22.925000  
473.000000	17.886000  
473.500000	15.088000  
474.000000	12.547000  
474.500000	10.365000  
475.000000	8.856999   
475.500000	8.135999   
476.000000	7.730000   
476.500000	6.907000   
477.000000	6.771000   
477.500000	6.396000   
478.000000	6.433000   
478.500000	6.506000   
479.000000	6.560000   
479.500000	6.528000   
480.000000	6.667000   
480.500000	6.544000   
481.000000	6.766000   
481.500000	6.691000   
482.000000	6.969000   
482.500000	6.927000   
483.000000	6.964000   
483.500000	7.287000   
484.000000	6.862000   
484.500000	7.327000   
485.000000	7.178000   
485.500000	7.545000   
486.000000	7.868000   
486.500000	7.719000   
487.000000	7.512000   
487.500000	7.359000   
488.000000	7.640000   
488.500000	7.242000   
489.000000	7.721000   
489.500000	7.983000   
490.000000	8.132000   
490.500000	8.071999   
491.000000	8.276999   
491.500000	8.617000   
492.000000	8.548000   
492.500000	8.178000   
493.000000	7.989000   
493.500000	8.241000   
494.000000	8.260000   
494.500000	8.445000   
495.000000	8.569000   
495.500000	8.866000   
496.000000	9.218000   
496.500000	8.695000   
497.000000	9.005000   
497.500000	8.759000   
498.000000	9.442000   
498.500000	9.036000   
499.000000	9.185000   
499.500000	9.388000   
500.000000	9.166000   
500.500000	8.960000   
501.000000	8.997999   
501.500000	8.718999   
502.000000	9.141000   
502.500000	8.897000   
503.000000	9.287000   
503.500000	9.468999   
504.000000	9.428000   
504.500000	9.210000   
505.000000	8.968000   
505.500000	9.135000   
506.000000	8.891999   
506.500000	9.439000   
507.000000	8.788000   
507.500000	9.234000   
508.000000	8.877000   
508.500000	8.888000   
509.000000	9.210000   
509.500000	9.148000   
510.000000	9.403000   
510.500000	9.118000   
511.000000	9.472000   
511.500000	9.244000   
512.000000	9.462999   
512.500000	9.909000   
513.000000	9.471000   
513.500000	9.242000   
514.000000	9.210000   
514.500000	8.773999   
515.000000	9.058000   
515.500000	9.157999   
516.000000	9.026999   
516.500000	9.308000   
517.000000	9.679000   
517.500000	9.420999   
518.000000	9.045999   
518.500000	9.351000   
519.000000	9.195000   
519.500000	9.520000   
520.000000	9.297000   
520.500000	9.191000   
521.000000	9.298000   
521.500000	8.962999   
522.000000	8.922000   
522.500000	9.199000   
523.000000	9.180999   
523.500000	9.528000   
524.000000	9.289999   
524.500000	9.141999   
525.000000	9.225000   
525.500000	9.526999   
526.000000	9.595000   
526.500000	9.201000   
527.000000	9.569000   
527.500000	9.589000   
528.000000	9.209000   
528.500000	9.520000   
529.000000	9.161000   
529.500000	9.704000   
530.000000	9.696000   
530.500000	9.410000   
531.000000	9.574000   
531.500000	10.162000  
532.000000	9.831000   
532.500000	10.097000  
533.000000	10.550000  
533.500000	10.373000  
534.000000	10.133000  
534.500000	9.980000   
535.000000	9.879000   
535.500000	10.196000  
536.000000	10.297000  
536.500000	10.367000  
537.000000	10.251000  
537.500000	10.098000  
538.000000	9.660000   
538.500000	10.242000  
539.000000	10.326000  
539.500000	9.938000   
540.000000	10.116000  
540.500000	9.634000   
541.000000	9.502000   
541.500000	9.464000   
542.000000	9.492000   
542.500000	9.397000   
543.000000	9.355000   
543.500000	8.827999   
544.000000	9.335000   
544.500000	8.840000   
545.000000	8.904999   
545.500000	8.609999   
546.000000	8.331000   
546.500000	7.676000   
547.000000	7.563000   
547.500000	7.926000   
548.000000	7.632000   
548.500000	7.427000   

