PE FL                   SPECTRUM    ASCII       PEDS        1.60        
  -1
01310F~1.SP
19/01/24
13:19:57.00
19/01/24
13:19:57.00


548.500000
1









LS45
385.00
10.00
10.00
SCAN
1
16
100
100
0
600
0
1
0
1
7
ON
550 545 
0 0 0
#HDR
-1
-1
#GR
NM
INT 
0.00002384185791015625
0.0
230.000000
0.500000
638
8
999.999000
0.279000
#DATA
230.000000	0.310000   
230.500000	0.445000   
231.000000	0.426000   
231.500000	0.421000   
232.000000	0.392000   
232.500000	0.432000   
233.000000	0.279000   
233.500000	0.324000   
234.000000	0.456000   
234.500000	0.457000   
235.000000	0.401000   
235.500000	0.386000   
236.000000	0.393000   
236.500000	0.412000   
237.000000	0.344000   
237.500000	0.379000   
238.000000	0.350000   
238.500000	0.377000   
239.000000	0.411000   
239.500000	0.392000   
240.000000	0.427000   
240.500000	0.420000   
241.000000	0.300000   
241.500000	0.387000   
242.000000	0.367000   
242.500000	0.449000   
243.000000	0.396000   
243.500000	0.422000   
244.000000	0.416000   
244.500000	0.429000   
245.000000	0.381000   
245.500000	0.339000   
246.000000	0.352000   
246.500000	0.452000   
247.000000	0.408000   
247.500000	0.435000   
248.000000	0.411000   
248.500000	0.407000   
249.000000	0.447000   
249.500000	0.306000   
250.000000	0.423000   
250.500000	0.432000   
251.000000	0.356000   
251.500000	0.371000   
252.000000	0.414000   
252.500000	0.316000   
253.000000	0.377000   
253.500000	0.450000   
254.000000	0.547000   
254.500000	0.299000   
255.000000	0.361000   
255.500000	0.433000   
256.000000	0.312000   
256.500000	0.345000   
257.000000	0.412000   
257.500000	0.337000   
258.000000	0.390000   
258.500000	0.487000   
259.000000	0.440000   
259.500000	0.363000   
260.000000	0.410000   
260.500000	0.439000   
261.000000	0.425000   
261.500000	0.359000   
262.000000	0.374000   
262.500000	0.493000   
263.000000	0.458000   
263.500000	0.454000   
264.000000	0.557000   
264.500000	0.498000   
265.000000	0.456000   
265.500000	0.491000   
266.000000	0.493000   
266.500000	0.492000   
267.000000	0.416000   
267.500000	0.480000   
268.000000	0.546000   
268.500000	0.559000   
269.000000	0.570000   
269.500000	0.487000   
270.000000	0.542000   
270.500000	0.514000   
271.000000	0.570000   
271.500000	0.564999   
272.000000	0.517000   
272.500000	0.480000   
273.000000	0.545000   
273.500000	0.667000   
274.000000	0.546000   
274.500000	0.490000   
275.000000	0.573000   
275.500000	0.520000   
276.000000	0.529000   
276.500000	0.666000   
277.000000	0.529000   
277.500000	0.431000   
278.000000	0.512000   
278.500000	0.523000   
279.000000	0.517000   
279.500000	0.592000   
280.000000	0.576000   
280.500000	0.574000   
281.000000	0.562999   
281.500000	0.538000   
282.000000	0.623000   
282.500000	0.533000   
283.000000	0.649000   
283.500000	0.581000   
284.000000	0.663000   
284.500000	0.622000   
285.000000	0.618000   
285.500000	0.756000   
286.000000	0.599000   
286.500000	0.636000   
287.000000	0.647000   
287.500000	0.559000   
288.000000	0.533000   
288.500000	0.533000   
289.000000	0.536000   
289.500000	0.606000   
290.000000	0.707000   
290.500000	0.683000   
291.000000	0.721000   
291.500000	0.603000   
292.000000	0.618000   
292.500000	0.638000   
293.000000	0.608000   
293.500000	0.625000   
294.000000	0.670000   
294.500000	0.596000   
295.000000	0.630000   
295.500000	0.671000   
296.000000	0.831000   
296.500000	0.839000   
297.000000	0.866000   
297.500000	0.809000   
298.000000	0.662000   
298.500000	0.718000   
299.000000	0.723000   
299.500000	0.679000   
300.000000	0.690999   
300.500000	0.903000   
301.000000	0.877000   
301.500000	0.889000   
302.000000	0.685000   
302.500000	0.730000   
303.000000	0.852000   
303.500000	0.835000   
304.000000	0.792000   
304.500000	0.879000   
305.000000	0.972000   
305.500000	0.888000   
306.000000	0.919000   
306.500000	1.084000   
307.000000	0.772000   
307.500000	0.921000   
308.000000	0.967000   
308.500000	0.803000   
309.000000	0.881000   
309.500000	1.002000   
310.000000	0.741000   
310.500000	0.755000   
311.000000	0.832000   
311.500000	0.843000   
312.000000	0.800000   
312.500000	1.035000   
313.000000	1.060000   
313.500000	1.064000   
314.000000	1.029000   
314.500000	0.950000   
315.000000	1.259000   
315.500000	1.051000   
316.000000	0.937999   
316.500000	1.068000   
317.000000	1.041000   
317.500000	1.119000   
318.000000	1.041000   
318.500000	1.013000   
319.000000	1.060000   
319.500000	1.145000   
320.000000	1.158000   
320.500000	1.176000   
321.000000	1.500000   
321.500000	1.331000   
322.000000	1.438000   
322.500000	1.267000   
323.000000	1.143000   
323.500000	1.351000   
324.000000	1.486000   
324.500000	1.476000   
325.000000	1.400000   
325.500000	1.478000   
326.000000	1.374000   
326.500000	1.454000   
327.000000	1.579000   
327.500000	1.667000   
328.000000	1.649000   
328.500000	1.747000   
329.000000	1.680000   
329.500000	1.703000   
330.000000	1.724000   
330.500000	1.723000   
331.000000	1.801000   
331.500000	1.909000   
332.000000	2.010000   
332.500000	2.017000   
333.000000	2.115000   
333.500000	2.145000   
334.000000	1.886000   
334.500000	1.996000   
335.000000	1.973000   
335.500000	1.924000   
336.000000	2.226000   
336.500000	2.537000   
337.000000	2.477000   
337.500000	2.424000   
338.000000	2.551000   
338.500000	2.472000   
339.000000	2.645000   
339.500000	2.644000   
340.000000	2.780000   
340.500000	3.085000   
341.000000	2.891000   
341.500000	2.811000   
342.000000	2.911000   
342.500000	2.929000   
343.000000	3.176000   
343.500000	3.240000   
344.000000	3.407000   
344.500000	3.662000   
345.000000	3.572000   
345.500000	3.570000   
346.000000	3.388000   
346.500000	3.533000   
347.000000	3.686000   
347.500000	3.911000   
348.000000	4.111000   
348.500000	4.131000   
349.000000	4.144000   
349.500000	4.376000   
350.000000	4.634000   
350.500000	4.772000   
351.000000	4.826000   
351.500000	5.141000   
352.000000	5.060000   
352.500000	5.549000   
353.000000	5.642000   
353.500000	5.359000   
354.000000	5.337000   
354.500000	6.242000   
355.000000	6.454000   
355.500000	6.405000   
356.000000	6.680000   
356.500000	6.737000   
357.000000	6.973000   
357.500000	7.244000   
358.000000	7.477000   
358.500000	7.352000   
359.000000	7.903000   
359.500000	8.194000   
360.000000	8.699000   
360.500000	9.744999   
361.000000	10.832000  
361.500000	12.413000  
362.000000	15.411000  
362.500000	19.969000  
363.000000	23.882000  
363.500000	30.159000  
364.000000	37.585000  
364.500000	49.219000  
365.000000	62.178000  
365.500000	79.631000  
366.000000	97.287000  
366.500000	120.905000 
367.000000	147.856000 
367.500000	180.168000 
368.000000	221.480000 
368.500000	258.020000 
369.000000	308.706000 
369.500000	417.611000 
370.000000	427.961000 
370.500000	541.014000 
371.000000	552.790000 
371.500000	670.165000 
372.000000	739.052000 
372.500000	809.883000 
373.000000	887.499000 
373.500000	977.559000 
374.000000	999.999000 
374.500000	999.999000 
375.000000	999.999000 
375.500000	999.999000 
376.000000	999.999000 
376.500000	999.999000 
377.000000	999.999000 
377.500000	999.999000 
378.000000	999.999000 
378.500000	999.999000 
379.000000	999.999000 
379.500000	999.999000 
380.000000	999.999000 
380.500000	999.999000 
381.000000	999.999000 
381.500000	999.999000 
382.000000	999.999000 
382.500000	999.999000 
383.000000	999.999000 
383.500000	999.999000 
384.000000	999.999000 
384.500000	999.999000 
385.000000	999.999000 
385.500000	999.999000 
386.000000	999.999000 
386.500000	999.999000 
387.000000	999.999000 
387.500000	999.999000 
388.000000	999.999000 
388.500000	998.190000 
389.000000	986.121000 
389.500000	863.008000 
390.000000	781.075000 
390.500000	714.422000 
391.000000	640.846000 
391.500000	571.203000 
392.000000	500.178000 
392.500000	487.688000 
393.000000	371.559000 
393.500000	361.843000 
394.000000	311.153000 
394.500000	256.035000 
395.000000	215.190000 
395.500000	172.151000 
396.000000	148.133000 
396.500000	117.867000 
397.000000	96.132000  
397.500000	76.026000  
398.000000	62.908000  
398.500000	49.124000  
399.000000	41.617000  
399.500000	34.064000  
400.000000	29.219000  
400.500000	24.848000  
401.000000	22.472000  
401.500000	20.728000  
402.000000	19.944000  
402.500000	19.275000  
403.000000	19.189000  
403.500000	18.875000  
404.000000	19.515000  
404.500000	18.977000  
405.000000	18.851000  
405.500000	19.340000  
406.000000	20.104000  
406.500000	20.367000  
407.000000	20.717000  
407.500000	20.269000  
408.000000	20.471000  
408.500000	21.593000  
409.000000	21.544000  
409.500000	20.948000  
410.000000	22.225000  
410.500000	22.166000  
411.000000	23.009000  
411.500000	23.235000  
412.000000	23.908000  
412.500000	24.630000  
413.000000	24.383000  
413.500000	25.038000  
414.000000	25.769000  
414.500000	26.318000  
415.000000	26.062000  
415.500000	27.308000  
416.000000	27.388000  
416.500000	28.161000  
417.000000	28.540000  
417.500000	28.432000  
418.000000	29.180000  
418.500000	30.660000  
419.000000	31.125000  
419.500000	31.869000  
420.000000	32.654000  
420.500000	33.551000  
421.000000	33.875000  
421.500000	35.799000  
422.000000	35.579000  
422.500000	37.008000  
423.000000	38.673000  
423.500000	39.776000  
424.000000	42.236000  
424.500000	42.912000  
425.000000	45.218000  
425.500000	44.843000  
426.000000	46.908000  
426.500000	48.981000  
427.000000	51.166000  
427.500000	52.651000  
428.000000	53.182000  
428.500000	55.557000  
429.000000	56.471000  
429.500000	58.108000  
430.000000	60.973000  
430.500000	61.326000  
431.000000	62.940000  
431.500000	66.742999  
432.000000	68.424000  
432.500000	69.639000  
433.000000	71.099999  
433.500000	71.906000  
434.000000	72.500000  
434.500000	75.537000  
435.000000	77.324000  
435.500000	76.896000  
436.000000	78.509000  
436.500000	78.938000  
437.000000	81.590999  
437.500000	81.244000  
438.000000	81.950999  
438.500000	82.188999  
439.000000	82.239999  
439.500000	83.503000  
440.000000	82.311000  
440.500000	81.146000  
441.000000	83.177000  
441.500000	81.753000  
442.000000	80.653000  
442.500000	79.952000  
443.000000	80.101000  
443.500000	78.714000  
444.000000	79.361000  
444.500000	78.102999  
445.000000	77.843999  
445.500000	76.522000  
446.000000	74.541000  
446.500000	74.802000  
447.000000	74.372000  
447.500000	72.650000  
448.000000	70.001000  
448.500000	69.325000  
449.000000	69.428000  
449.500000	67.714000  
450.000000	66.807000  
450.500000	65.682000  
451.000000	65.187000  
451.500000	63.512000  
452.000000	63.430000  
452.500000	63.176000  
453.000000	62.528000  
453.500000	62.483000  
454.000000	61.159000  
454.500000	59.740000  
455.000000	58.709000  
455.500000	59.976000  
456.000000	58.406000  
456.500000	59.090000  
457.000000	57.681000  
457.500000	59.108000  
458.000000	57.910000  
458.500000	57.175000  
459.000000	57.146000  
459.500000	57.795000  
460.000000	57.171000  
460.500000	56.889000  
461.000000	56.348000  
461.500000	56.954000  
462.000000	56.397000  
462.500000	56.051000  
463.000000	54.765000  
463.500000	54.747000  
464.000000	54.187000  
464.500000	53.846000  
465.000000	53.727000  
465.500000	54.304000  
466.000000	53.740000  
466.500000	52.446000  
467.000000	52.682000  
467.500000	53.540000  
468.000000	52.519000  
468.500000	53.916000  
469.000000	53.190000  
469.500000	53.000000  
470.000000	52.171000  
470.500000	51.723000  
471.000000	50.865000  
471.500000	51.455000  
472.000000	51.181000  
472.500000	51.031000  
473.000000	50.325000  
473.500000	50.837000  
474.000000	50.711000  
474.500000	50.291000  
475.000000	49.604000  
475.500000	49.275000  
476.000000	49.725000  
476.500000	49.392000  
477.000000	48.946000  
477.500000	48.386000  
478.000000	49.213000  
478.500000	47.606000  
479.000000	47.305000  
479.500000	46.350000  
480.000000	46.078000  
480.500000	46.437000  
481.000000	47.925000  
481.500000	46.706000  
482.000000	46.002000  
482.500000	46.463000  
483.000000	46.530000  
483.500000	45.431000  
484.000000	45.664000  
484.500000	46.596000  
485.000000	44.682000  
485.500000	45.027000  
486.000000	43.944000  
486.500000	43.882000  
487.000000	43.407000  
487.500000	42.971000  
488.000000	43.142000  
488.500000	43.107000  
489.000000	43.009000  
489.500000	41.011000  
490.000000	40.681000  
490.500000	40.855000  
491.000000	40.688000  
491.500000	41.170000  
492.000000	41.141000  
492.500000	40.677000  
493.000000	39.955000  
493.500000	39.418000  
494.000000	37.665000  
494.500000	38.195000  
495.000000	38.736000  
495.500000	38.212000  
496.000000	37.280000  
496.500000	36.954000  
497.000000	36.025000  
497.500000	36.317000  
498.000000	37.129000  
498.500000	35.689000  
499.000000	35.283000  
499.500000	35.341000  
500.000000	34.910000  
500.500000	34.615000  
501.000000	34.646000  
501.500000	34.510000  
502.000000	33.166000  
502.500000	32.907000  
503.000000	33.257000  
503.500000	33.335000  
504.000000	32.606000  
504.500000	31.997000  
505.000000	31.497000  
505.500000	32.013000  
506.000000	31.819000  
506.500000	31.568000  
507.000000	30.508000  
507.500000	30.029000  
508.000000	30.089000  
508.500000	30.275000  
509.000000	30.502000  
509.500000	29.471000  
510.000000	28.508000  
510.500000	29.071000  
511.000000	28.559000  
511.500000	27.324000  
512.000000	27.566000  
512.500000	27.278000  
513.000000	27.753000  
513.500000	27.196000  
514.000000	26.213000  
514.500000	26.367000  
515.000000	26.717000  
515.500000	26.892000  
516.000000	25.722000  
516.500000	24.909000  
517.000000	25.412000  
517.500000	24.230000  
518.000000	24.415000  
518.500000	24.095000  
519.000000	24.213000  
519.500000	24.351000  
520.000000	23.652000  
520.500000	22.717000  
521.000000	23.222000  
521.500000	22.613000  
522.000000	22.397000  
522.500000	22.963000  
523.000000	22.369000  
523.500000	21.398000  
524.000000	21.507000  
524.500000	21.604000  
525.000000	21.216000  
525.500000	20.749000  
526.000000	20.575000  
526.500000	20.408000  
527.000000	20.207000  
527.500000	20.056000  
528.000000	20.119000  
528.500000	18.766000  
529.000000	18.930000  
529.500000	18.181000  
530.000000	18.331000  
530.500000	18.536000  
531.000000	18.046000  
531.500000	17.461000  
532.000000	17.301000  
532.500000	18.059000  
533.000000	17.275000  
533.500000	16.555000  
534.000000	16.292000  
534.500000	16.734000  
535.000000	15.746000  
535.500000	15.502000  
536.000000	16.273000  
536.500000	15.132000  
537.000000	15.276000  
537.500000	14.751000  
538.000000	14.686000  
538.500000	14.608000  
539.000000	14.223000  
539.500000	14.134000  
540.000000	13.845000  
540.500000	13.623000  
541.000000	12.950000  
541.500000	13.266000  
542.000000	13.413000  
542.500000	13.238000  
543.000000	12.766000  
543.500000	12.748000  
544.000000	12.163000  
544.500000	12.183000  
545.000000	11.956000  
545.500000	11.907000  
546.000000	11.445000  
546.500000	11.485000  
547.000000	11.292000  
547.500000	11.216000  
548.000000	10.978000  
548.500000	11.108000  

