PE FL                   SPECTRUM    ASCII       PEDS        1.60        
  -1
01350F~1.SP
19/01/24
13:27:28.00
19/01/24
13:27:28.00


548.500000
1









LS45
435.00
10.00
10.00
SCAN
1
16
100
100
0
600
0
1
0
1
7
ON
550 545 
0 0 0
#HDR
-1
-1
#GR
NM
INT 
0.00002384185791015625
0.0
230.000000
0.500000
638
8
999.999000
0.113000
#DATA
230.000000	0.126000   
230.500000	0.115000   
231.000000	0.132000   
231.500000	0.235000   
232.000000	0.166000   
232.500000	0.113000   
233.000000	0.168000   
233.500000	0.142000   
234.000000	0.191000   
234.500000	0.234000   
235.000000	0.181000   
235.500000	0.141000   
236.000000	0.123000   
236.500000	0.120000   
237.000000	0.170000   
237.500000	0.201000   
238.000000	0.219000   
238.500000	0.202000   
239.000000	0.223000   
239.500000	0.216000   
240.000000	0.140000   
240.500000	0.167000   
241.000000	0.173000   
241.500000	0.139000   
242.000000	0.192000   
242.500000	0.260000   
243.000000	0.180000   
243.500000	0.245000   
244.000000	0.236000   
244.500000	0.231000   
245.000000	0.240000   
245.500000	0.283000   
246.000000	0.247000   
246.500000	0.217000   
247.000000	0.315000   
247.500000	0.189000   
248.000000	0.255000   
248.500000	0.279000   
249.000000	0.232000   
249.500000	0.187000   
250.000000	0.220000   
250.500000	0.181000   
251.000000	0.152000   
251.500000	0.163000   
252.000000	0.162000   
252.500000	0.174000   
253.000000	0.212000   
253.500000	0.168000   
254.000000	0.252000   
254.500000	0.157000   
255.000000	0.199000   
255.500000	0.197000   
256.000000	0.207000   
256.500000	0.219000   
257.000000	0.192000   
257.500000	0.189000   
258.000000	0.126000   
258.500000	0.127000   
259.000000	0.148000   
259.500000	0.222000   
260.000000	0.206000   
260.500000	0.228000   
261.000000	0.284000   
261.500000	0.176000   
262.000000	0.211000   
262.500000	0.214000   
263.000000	0.169000   
263.500000	0.162000   
264.000000	0.202000   
264.500000	0.143000   
265.000000	0.270000   
265.500000	0.242000   
266.000000	0.234000   
266.500000	0.216000   
267.000000	0.184000   
267.500000	0.256000   
268.000000	0.176000   
268.500000	0.182000   
269.000000	0.116000   
269.500000	0.146000   
270.000000	0.208000   
270.500000	0.188000   
271.000000	0.197000   
271.500000	0.186000   
272.000000	0.216000   
272.500000	0.222000   
273.000000	0.221000   
273.500000	0.225000   
274.000000	0.289000   
274.500000	0.177000   
275.000000	0.228000   
275.500000	0.280000   
276.000000	0.227000   
276.500000	0.175000   
277.000000	0.232000   
277.500000	0.240000   
278.000000	0.270000   
278.500000	0.286000   
279.000000	0.247000   
279.500000	0.232000   
280.000000	0.245000   
280.500000	0.247000   
281.000000	0.230000   
281.500000	0.205000   
282.000000	0.256000   
282.500000	0.282000   
283.000000	0.234000   
283.500000	0.250000   
284.000000	0.236000   
284.500000	0.207000   
285.000000	0.237000   
285.500000	0.222000   
286.000000	0.277000   
286.500000	0.318000   
287.000000	0.363000   
287.500000	0.266000   
288.000000	0.274000   
288.500000	0.272000   
289.000000	0.287000   
289.500000	0.247000   
290.000000	0.219000   
290.500000	0.296000   
291.000000	0.216000   
291.500000	0.250000   
292.000000	0.253000   
292.500000	0.302000   
293.000000	0.354000   
293.500000	0.312000   
294.000000	0.249000   
294.500000	0.271000   
295.000000	0.294000   
295.500000	0.305000   
296.000000	0.333000   
296.500000	0.268000   
297.000000	0.293000   
297.500000	0.293000   
298.000000	0.335000   
298.500000	0.374000   
299.000000	0.358000   
299.500000	0.454000   
300.000000	0.395000   
300.500000	0.351000   
301.000000	0.372000   
301.500000	0.320000   
302.000000	0.296000   
302.500000	0.316000   
303.000000	0.387000   
303.500000	0.339000   
304.000000	0.301000   
304.500000	0.348000   
305.000000	0.358000   
305.500000	0.284000   
306.000000	0.367000   
306.500000	0.360000   
307.000000	0.328000   
307.500000	0.263000   
308.000000	0.282000   
308.500000	0.380000   
309.000000	0.445000   
309.500000	0.432000   
310.000000	0.419000   
310.500000	0.388000   
311.000000	0.368000   
311.500000	0.348000   
312.000000	0.390000   
312.500000	0.368000   
313.000000	0.450000   
313.500000	0.441000   
314.000000	0.425000   
314.500000	0.371000   
315.000000	0.332000   
315.500000	0.341000   
316.000000	0.379000   
316.500000	0.458000   
317.000000	0.462000   
317.500000	0.395000   
318.000000	0.456000   
318.500000	0.458000   
319.000000	0.354000   
319.500000	0.443000   
320.000000	0.410000   
320.500000	0.442000   
321.000000	0.517000   
321.500000	0.499000   
322.000000	0.451000   
322.500000	0.400000   
323.000000	0.409000   
323.500000	0.460000   
324.000000	0.361000   
324.500000	0.464000   
325.000000	0.415000   
325.500000	0.397000   
326.000000	0.368000   
326.500000	0.478000   
327.000000	0.506000   
327.500000	0.447000   
328.000000	0.470000   
328.500000	0.599000   
329.000000	0.495000   
329.500000	0.446000   
330.000000	0.546000   
330.500000	0.542000   
331.000000	0.586000   
331.500000	0.538000   
332.000000	0.533000   
332.500000	0.631000   
333.000000	0.694000   
333.500000	0.580000   
334.000000	0.521000   
334.500000	0.613000   
335.000000	0.586000   
335.500000	0.702000   
336.000000	0.611000   
336.500000	0.704000   
337.000000	0.550000   
337.500000	0.712000   
338.000000	0.576000   
338.500000	0.606000   
339.000000	0.608000   
339.500000	0.666000   
340.000000	0.739000   
340.500000	0.648000   
341.000000	0.696000   
341.500000	0.690999   
342.000000	0.702000   
342.500000	0.833000   
343.000000	0.738000   
343.500000	0.724000   
344.000000	0.824000   
344.500000	0.785000   
345.000000	0.691999   
345.500000	0.709000   
346.000000	0.695000   
346.500000	0.805000   
347.000000	0.733000   
347.500000	0.661000   
348.000000	0.707000   
348.500000	0.779000   
349.000000	0.623000   
349.500000	0.811000   
350.000000	0.690999   
350.500000	0.737000   
351.000000	0.610000   
351.500000	0.593000   
352.000000	0.632000   
352.500000	0.718000   
353.000000	0.758000   
353.500000	0.682000   
354.000000	0.805000   
354.500000	0.779000   
355.000000	0.832000   
355.500000	0.749000   
356.000000	0.685000   
356.500000	0.789000   
357.000000	0.800000   
357.500000	0.852000   
358.000000	0.858000   
358.500000	0.756000   
359.000000	0.824000   
359.500000	0.855000   
360.000000	0.875000   
360.500000	0.805000   
361.000000	0.829000   
361.500000	0.826000   
362.000000	0.936000   
362.500000	0.827000   
363.000000	0.971000   
363.500000	0.936000   
364.000000	0.896000   
364.500000	0.944000   
365.000000	0.877000   
365.500000	1.069000   
366.000000	0.941999   
366.500000	0.930000   
367.000000	0.917000   
367.500000	1.017000   
368.000000	1.114000   
368.500000	1.002000   
369.000000	0.994000   
369.500000	1.161000   
370.000000	1.134000   
370.500000	1.111000   
371.000000	1.046000   
371.500000	1.081000   
372.000000	1.109000   
372.500000	1.102000   
373.000000	0.987000   
373.500000	1.196000   
374.000000	1.145000   
374.500000	1.225000   
375.000000	1.475000   
375.500000	1.365000   
376.000000	1.453000   
376.500000	1.365000   
377.000000	1.353000   
377.500000	1.365000   
378.000000	1.404000   
378.500000	1.584000   
379.000000	1.423000   
379.500000	1.469000   
380.000000	1.522000   
380.500000	1.655000   
381.000000	1.655000   
381.500000	1.554000   
382.000000	1.531000   
382.500000	1.674000   
383.000000	1.627000   
383.500000	1.795000   
384.000000	1.741000   
384.500000	1.616000   
385.000000	1.718000   
385.500000	1.532000   
386.000000	1.814000   
386.500000	2.046000   
387.000000	1.890000   
387.500000	1.880000   
388.000000	2.121000   
388.500000	2.030000   
389.000000	1.974000   
389.500000	2.088000   
390.000000	2.138000   
390.500000	2.062000   
391.000000	2.171000   
391.500000	2.085000   
392.000000	2.048000   
392.500000	1.996000   
393.000000	2.425000   
393.500000	2.277000   
394.000000	2.482000   
394.500000	2.487000   
395.000000	2.508000   
395.500000	2.479000   
396.000000	2.397000   
396.500000	2.589000   
397.000000	2.636000   
397.500000	2.623000   
398.000000	2.776000   
398.500000	2.825000   
399.000000	3.006000   
399.500000	2.984000   
400.000000	3.070000   
400.500000	2.954000   
401.000000	3.020000   
401.500000	3.135000   
402.000000	3.082000   
402.500000	3.364000   
403.000000	3.526000   
403.500000	3.516000   
404.000000	3.269000   
404.500000	3.544000   
405.000000	3.557000   
405.500000	3.594000   
406.000000	3.939000   
406.500000	3.796000   
407.000000	3.886000   
407.500000	3.935000   
408.000000	4.172000   
408.500000	4.440000   
409.000000	4.551000   
409.500000	4.751000   
410.000000	5.279000   
410.500000	5.551000   
411.000000	6.302000   
411.500000	7.368000   
412.000000	8.768000   
412.500000	12.249000  
413.000000	15.475000  
413.500000	19.136000  
414.000000	23.974000  
414.500000	31.041000  
415.000000	38.625000  
415.500000	50.993000  
416.000000	65.797000  
416.500000	80.441000  
417.000000	96.126000  
417.500000	122.224000 
418.000000	144.754000 
418.500000	178.530000 
419.000000	209.383000 
419.500000	245.622000 
420.000000	278.755000 
420.500000	323.025000 
421.000000	368.040000 
421.500000	420.751000 
422.000000	478.769000 
422.500000	529.565000 
423.000000	578.583999 
423.500000	631.653000 
424.000000	683.316000 
424.500000	733.217000 
425.000000	782.830000 
425.500000	834.379000 
426.000000	872.776000 
426.500000	912.595000 
427.000000	942.378000 
427.500000	970.814000 
428.000000	997.069000 
428.500000	999.999000 
429.000000	999.999000 
429.500000	999.999000 
430.000000	999.999000 
430.500000	999.999000 
431.000000	999.999000 
431.500000	999.999000 
432.000000	999.999000 
432.500000	999.999000 
433.000000	999.999000 
433.500000	999.999000 
434.000000	994.631999 
434.500000	968.413000 
435.000000	930.520000 
435.500000	908.349000 
436.000000	860.658000 
436.500000	825.348000 
437.000000	782.500000 
437.500000	684.312000 
438.000000	676.794000 
438.500000	634.017000 
439.000000	572.938000 
439.500000	521.324000 
440.000000	467.567000 
440.500000	412.016000 
441.000000	357.005000 
441.500000	314.200000 
442.000000	273.999000 
442.500000	232.165000 
443.000000	199.072000 
443.500000	164.530000 
444.000000	134.936000 
444.500000	108.348000 
445.000000	91.727999  
445.500000	72.343000  
446.000000	59.942000  
446.500000	46.144000  
447.000000	36.470000  
447.500000	28.833000  
448.000000	23.976000  
448.500000	18.883000  
449.000000	16.342000  
449.500000	13.624000  
450.000000	12.352000  
450.500000	10.337000  
451.000000	9.710000   
451.500000	9.663000   
452.000000	9.339000   
452.500000	9.930000   
453.000000	9.355000   
453.500000	9.095000   
454.000000	8.964000   
454.500000	9.198000   
455.000000	8.967000   
455.500000	8.625999   
456.000000	8.984999   
456.500000	9.504000   
457.000000	9.263000   
457.500000	9.151000   
458.000000	9.105000   
458.500000	8.927000   
459.000000	9.007999   
459.500000	8.907999   
460.000000	9.433000   
460.500000	9.427000   
461.000000	9.609999   
461.500000	9.561999   
462.000000	9.023000   
462.500000	9.423000   
463.000000	9.734000   
463.500000	9.584000   
464.000000	9.385000   
464.500000	9.731999   
465.000000	10.010000  
465.500000	10.027000  
466.000000	9.835000   
466.500000	9.802000   
467.000000	10.232000  
467.500000	10.008000  
468.000000	10.552000  
468.500000	10.402000  
469.000000	9.984000   
469.500000	10.019000  
470.000000	10.313000  
470.500000	10.671000  
471.000000	10.934000  
471.500000	11.067000  
472.000000	11.033000  
472.500000	11.373000  
473.000000	11.238000  
473.500000	11.061000  
474.000000	11.195000  
474.500000	11.524000  
475.000000	11.467000  
475.500000	12.238000  
476.000000	12.253000  
476.500000	11.862000  
477.000000	12.596000  
477.500000	12.292000  
478.000000	12.911000  
478.500000	12.550000  
479.000000	12.371000  
479.500000	13.185000  
480.000000	12.994000  
480.500000	13.643000  
481.000000	13.796000  
481.500000	13.739000  
482.000000	14.002000  
482.500000	13.948000  
483.000000	14.440000  
483.500000	13.987000  
484.000000	13.981000  
484.500000	15.246000  
485.000000	15.801000  
485.500000	15.364000  
486.000000	15.444000  
486.500000	15.738000  
487.000000	16.503000  
487.500000	16.034000  
488.000000	16.755000  
488.500000	16.589000  
489.000000	17.043000  
489.500000	17.561000  
490.000000	17.754000  
490.500000	17.908000  
491.000000	18.968000  
491.500000	18.888000  
492.000000	19.004000  
492.500000	19.291000  
493.000000	19.523000  
493.500000	20.089000  
494.000000	20.580000  
494.500000	20.892000  
495.000000	21.129000  
495.500000	21.301000  
496.000000	21.950000  
496.500000	22.491000  
497.000000	22.426000  
497.500000	22.953000  
498.000000	23.620000  
498.500000	23.403000  
499.000000	24.095000  
499.500000	23.442000  
500.000000	24.618000  
500.500000	24.816000  
501.000000	25.209000  
501.500000	25.781000  
502.000000	25.734000  
502.500000	26.066000  
503.000000	25.737000  
503.500000	25.427000  
504.000000	25.653000  
504.500000	25.537000  
505.000000	25.526000  
505.500000	25.729000  
506.000000	26.004000  
506.500000	25.397000  
507.000000	25.260000  
507.500000	25.348000  
508.000000	25.613000  
508.500000	25.351000  
509.000000	25.700000  
509.500000	24.687000  
510.000000	24.406000  
510.500000	24.038000  
511.000000	23.776000  
511.500000	23.865000  
512.000000	23.291000  
512.500000	22.852000  
513.000000	22.974000  
513.500000	22.802000  
514.000000	22.030000  
514.500000	21.397000  
515.000000	20.694000  
515.500000	20.603000  
516.000000	20.957000  
516.500000	20.308000  
517.000000	19.792000  
517.500000	19.669000  
518.000000	19.276000  
518.500000	19.330000  
519.000000	18.492000  
519.500000	19.334000  
520.000000	18.549000  
520.500000	18.126000  
521.000000	17.926000  
521.500000	17.322000  
522.000000	16.685000  
522.500000	16.935000  
523.000000	16.924000  
523.500000	15.999000  
524.000000	15.936000  
524.500000	15.672000  
525.000000	16.040000  
525.500000	16.286000  
526.000000	15.537000  
526.500000	15.500000  
527.000000	15.735000  
527.500000	15.666000  
528.000000	14.717000  
528.500000	14.487000  
529.000000	15.134000  
529.500000	14.538000  
530.000000	14.382000  
530.500000	14.203000  
531.000000	13.730000  
531.500000	13.748000  
532.000000	13.954000  
532.500000	13.667000  
533.000000	13.904000  
533.500000	13.822000  
534.000000	13.202000  
534.500000	13.583000  
535.000000	13.211000  
535.500000	12.908000  
536.000000	12.753000  
536.500000	13.033000  
537.000000	12.465000  
537.500000	12.488000  
538.000000	12.784000  
538.500000	12.107000  
539.000000	12.060000  
539.500000	11.298000  
540.000000	11.482000  
540.500000	11.668000  
541.000000	11.798000  
541.500000	11.647000  
542.000000	10.717000  
542.500000	10.933000  
543.000000	10.818000  
543.500000	10.513000  
544.000000	10.618000  
544.500000	10.893000  
545.000000	10.344000  
545.500000	10.442000  
546.000000	10.227000  
546.500000	9.991000   
547.000000	10.236000  
547.500000	9.784000   
548.000000	9.840999   
548.500000	9.922000   

