PE FL                   SPECTRUM    ASCII       PEDS        1.60        
  -1
014503~1.SP
19/01/24
13:29:44.00
19/01/24
13:29:44.00


548.500000
1









LS45
450.00
10.00
10.00
SCAN
1
16
100
100
0
600
0
1
0
1
7
ON
550 545 
0 0 0
#HDR
-1
-1
#GR
NM
INT 
0.00002384185791015625
0.0
230.000000
0.500000
638
8
999.999000
0.092000
#DATA
230.000000	0.129000   
230.500000	0.092000   
231.000000	0.128000   
231.500000	0.100000   
232.000000	0.157000   
232.500000	0.153000   
233.000000	0.165000   
233.500000	0.102000   
234.000000	0.152000   
234.500000	0.099000   
235.000000	0.152000   
235.500000	0.126000   
236.000000	0.120000   
236.500000	0.129000   
237.000000	0.123000   
237.500000	0.096000   
238.000000	0.117000   
238.500000	0.139000   
239.000000	0.183000   
239.500000	0.107000   
240.000000	0.106000   
240.500000	0.118000   
241.000000	0.191000   
241.500000	0.186000   
242.000000	0.195000   
242.500000	0.141000   
243.000000	0.119000   
243.500000	0.123000   
244.000000	0.170000   
244.500000	0.154000   
245.000000	0.148000   
245.500000	0.146000   
246.000000	0.218000   
246.500000	0.169000   
247.000000	0.187000   
247.500000	0.190000   
248.000000	0.199000   
248.500000	0.188000   
249.000000	0.193000   
249.500000	0.282000   
250.000000	0.173000   
250.500000	0.136000   
251.000000	0.147000   
251.500000	0.213000   
252.000000	0.154000   
252.500000	0.201000   
253.000000	0.230000   
253.500000	0.194000   
254.000000	0.213000   
254.500000	0.200000   
255.000000	0.266000   
255.500000	0.222000   
256.000000	0.215000   
256.500000	0.186000   
257.000000	0.172000   
257.500000	0.162000   
258.000000	0.214000   
258.500000	0.213000   
259.000000	0.245000   
259.500000	0.198000   
260.000000	0.214000   
260.500000	0.140000   
261.000000	0.154000   
261.500000	0.180000   
262.000000	0.188000   
262.500000	0.201000   
263.000000	0.223000   
263.500000	0.229000   
264.000000	0.225000   
264.500000	0.224000   
265.000000	0.126000   
265.500000	0.148000   
266.000000	0.170000   
266.500000	0.125000   
267.000000	0.185000   
267.500000	0.165000   
268.000000	0.243000   
268.500000	0.193000   
269.000000	0.220000   
269.500000	0.155000   
270.000000	0.135000   
270.500000	0.172000   
271.000000	0.136000   
271.500000	0.218000   
272.000000	0.227000   
272.500000	0.234000   
273.000000	0.173000   
273.500000	0.176000   
274.000000	0.179000   
274.500000	0.165000   
275.000000	0.204000   
275.500000	0.193000   
276.000000	0.227000   
276.500000	0.250000   
277.000000	0.244000   
277.500000	0.224000   
278.000000	0.218000   
278.500000	0.145000   
279.000000	0.215000   
279.500000	0.297000   
280.000000	0.163000   
280.500000	0.203000   
281.000000	0.251000   
281.500000	0.230000   
282.000000	0.142000   
282.500000	0.249000   
283.000000	0.234000   
283.500000	0.204000   
284.000000	0.269000   
284.500000	0.228000   
285.000000	0.178000   
285.500000	0.208000   
286.000000	0.214000   
286.500000	0.219000   
287.000000	0.221000   
287.500000	0.248000   
288.000000	0.212000   
288.500000	0.250000   
289.000000	0.218000   
289.500000	0.155000   
290.000000	0.179000   
290.500000	0.250000   
291.000000	0.270000   
291.500000	0.212000   
292.000000	0.180000   
292.500000	0.264000   
293.000000	0.328000   
293.500000	0.178000   
294.000000	0.219000   
294.500000	0.270000   
295.000000	0.223000   
295.500000	0.302000   
296.000000	0.253000   
296.500000	0.197000   
297.000000	0.249000   
297.500000	0.286000   
298.000000	0.272000   
298.500000	0.215000   
299.000000	0.268000   
299.500000	0.242000   
300.000000	0.226000   
300.500000	0.221000   
301.000000	0.298000   
301.500000	0.302000   
302.000000	0.273000   
302.500000	0.337000   
303.000000	0.298000   
303.500000	0.261000   
304.000000	0.250000   
304.500000	0.272000   
305.000000	0.287000   
305.500000	0.316000   
306.000000	0.320000   
306.500000	0.283000   
307.000000	0.292000   
307.500000	0.324000   
308.000000	0.314000   
308.500000	0.298000   
309.000000	0.324000   
309.500000	0.299000   
310.000000	0.306000   
310.500000	0.346000   
311.000000	0.240000   
311.500000	0.232000   
312.000000	0.259000   
312.500000	0.329000   
313.000000	0.378000   
313.500000	0.386000   
314.000000	0.319000   
314.500000	0.330000   
315.000000	0.410000   
315.500000	0.431000   
316.000000	0.343000   
316.500000	0.349000   
317.000000	0.344000   
317.500000	0.432000   
318.000000	0.307000   
318.500000	0.305000   
319.000000	0.281000   
319.500000	0.376000   
320.000000	0.345000   
320.500000	0.464000   
321.000000	0.392000   
321.500000	0.370000   
322.000000	0.377000   
322.500000	0.360000   
323.000000	0.368000   
323.500000	0.398000   
324.000000	0.455000   
324.500000	0.461000   
325.000000	0.428000   
325.500000	0.345000   
326.000000	0.446000   
326.500000	0.415000   
327.000000	0.441000   
327.500000	0.482000   
328.000000	0.378000   
328.500000	0.433000   
329.000000	0.437000   
329.500000	0.449000   
330.000000	0.544000   
330.500000	0.468000   
331.000000	0.499000   
331.500000	0.336000   
332.000000	0.461000   
332.500000	0.431000   
333.000000	0.471000   
333.500000	0.391000   
334.000000	0.514000   
334.500000	0.520000   
335.000000	0.475000   
335.500000	0.440000   
336.000000	0.486000   
336.500000	0.436000   
337.000000	0.573000   
337.500000	0.517000   
338.000000	0.494000   
338.500000	0.443000   
339.000000	0.457000   
339.500000	0.451000   
340.000000	0.517000   
340.500000	0.561000   
341.000000	0.530000   
341.500000	0.581000   
342.000000	0.625000   
342.500000	0.558000   
343.000000	0.543000   
343.500000	0.524000   
344.000000	0.489000   
344.500000	0.506000   
345.000000	0.632000   
345.500000	0.517000   
346.000000	0.651000   
346.500000	0.615000   
347.000000	0.558000   
347.500000	0.597000   
348.000000	0.585000   
348.500000	0.612000   
349.000000	0.566999   
349.500000	0.562999   
350.000000	0.602000   
350.500000	0.552000   
351.000000	0.692999   
351.500000	0.710000   
352.000000	0.660000   
352.500000	0.536000   
353.000000	0.622000   
353.500000	0.610000   
354.000000	0.740000   
354.500000	0.666000   
355.000000	0.653000   
355.500000	0.673000   
356.000000	0.664000   
356.500000	0.690999   
357.000000	0.747000   
357.500000	0.704000   
358.000000	0.607000   
358.500000	0.637000   
359.000000	0.542000   
359.500000	0.555000   
360.000000	0.738000   
360.500000	0.756000   
361.000000	0.741000   
361.500000	0.694000   
362.000000	0.754000   
362.500000	0.779000   
363.000000	0.668000   
363.500000	0.736000   
364.000000	0.783000   
364.500000	0.613000   
365.000000	0.651000   
365.500000	0.831000   
366.000000	0.692999   
366.500000	0.761000   
367.000000	0.696000   
367.500000	0.701000   
368.000000	0.603000   
368.500000	0.729000   
369.000000	0.788000   
369.500000	0.782000   
370.000000	0.732000   
370.500000	0.732000   
371.000000	0.623000   
371.500000	0.655000   
372.000000	0.779000   
372.500000	0.730000   
373.000000	0.730000   
373.500000	0.823000   
374.000000	0.865000   
374.500000	0.696000   
375.000000	0.799000   
375.500000	0.791000   
376.000000	0.846000   
376.500000	0.961000   
377.000000	0.892000   
377.500000	0.929000   
378.000000	0.860000   
378.500000	1.001000   
379.000000	1.053000   
379.500000	0.909000   
380.000000	0.838000   
380.500000	1.004000   
381.000000	1.055000   
381.500000	0.918000   
382.000000	0.926000   
382.500000	0.995000   
383.000000	1.060000   
383.500000	1.058000   
384.000000	0.985000   
384.500000	1.148000   
385.000000	1.057000   
385.500000	1.092000   
386.000000	1.115000   
386.500000	1.057000   
387.000000	1.098000   
387.500000	1.070000   
388.000000	1.121000   
388.500000	1.139000   
389.000000	1.364000   
389.500000	1.115000   
390.000000	1.253000   
390.500000	1.182000   
391.000000	1.279000   
391.500000	1.176000   
392.000000	1.227000   
392.500000	1.381000   
393.000000	1.271000   
393.500000	1.301000   
394.000000	1.130000   
394.500000	1.243000   
395.000000	1.430000   
395.500000	1.379000   
396.000000	1.476000   
396.500000	1.410000   
397.000000	1.424000   
397.500000	1.411000   
398.000000	1.509000   
398.500000	1.588000   
399.000000	1.624000   
399.500000	1.561000   
400.000000	1.468000   
400.500000	1.690000   
401.000000	1.848000   
401.500000	1.847000   
402.000000	1.801000   
402.500000	1.797000   
403.000000	1.814000   
403.500000	1.852000   
404.000000	1.829000   
404.500000	1.821000   
405.000000	1.917000   
405.500000	2.023000   
406.000000	2.354000   
406.500000	2.117000   
407.000000	1.913000   
407.500000	2.231000   
408.000000	2.272000   
408.500000	2.243000   
409.000000	2.266000   
409.500000	2.274000   
410.000000	2.295000   
410.500000	2.361000   
411.000000	2.272000   
411.500000	2.369000   
412.000000	2.513000   
412.500000	2.543000   
413.000000	2.920000   
413.500000	2.797000   
414.000000	2.783000   
414.500000	2.936000   
415.000000	2.873000   
415.500000	3.093000   
416.000000	3.115000   
416.500000	3.039000   
417.000000	3.004000   
417.500000	2.896000   
418.000000	3.058000   
418.500000	3.184000   
419.000000	3.242000   
419.500000	3.668000   
420.000000	3.817000   
420.500000	3.602000   
421.000000	3.732000   
421.500000	3.916000   
422.000000	3.711000   
422.500000	3.882000   
423.000000	4.023000   
423.500000	4.163000   
424.000000	4.294000   
424.500000	4.423000   
425.000000	4.571000   
425.500000	4.870000   
426.000000	5.452000   
426.500000	6.271000   
427.000000	7.464000   
427.500000	9.206000   
428.000000	11.758000  
428.500000	15.500000  
429.000000	20.537000  
429.500000	25.322000  
430.000000	33.726000  
430.500000	41.788000  
431.000000	55.544000  
431.500000	70.325000  
432.000000	87.629000  
432.500000	103.956000 
433.000000	130.008000 
433.500000	152.160000 
434.000000	187.668000 
434.500000	222.192000 
435.000000	263.224000 
435.500000	294.286000 
436.000000	342.262000 
436.500000	381.980000 
437.000000	434.862000 
437.500000	539.015000 
438.000000	547.635000 
438.500000	593.162000 
439.000000	645.838000 
439.500000	690.282000 
440.000000	742.901000 
440.500000	794.934999 
441.000000	844.924000 
441.500000	872.574000 
442.000000	911.793000 
442.500000	940.490000 
443.000000	965.785999 
443.500000	990.326000 
444.000000	999.999000 
444.500000	999.999000 
445.000000	999.999000 
445.500000	999.999000 
446.000000	999.999000 
446.500000	999.999000 
447.000000	999.999000 
447.500000	999.999000 
448.000000	999.999000 
448.500000	986.234000 
449.000000	963.517000 
449.500000	929.600000 
450.000000	904.790000 
450.500000	862.135000 
451.000000	834.309999 
451.500000	786.978000 
452.000000	744.582000 
452.500000	698.773000 
453.000000	587.950000 
453.500000	580.224000 
454.000000	537.677000 
454.500000	481.787000 
455.000000	433.318000 
455.500000	379.706000 
456.000000	334.898000 
456.500000	283.210000 
457.000000	249.955000 
457.500000	212.528000 
458.000000	183.979000 
458.500000	153.614000 
459.000000	125.472000 
459.500000	101.891000 
460.000000	86.736999  
460.500000	71.293000  
461.000000	55.181000  
461.500000	45.433000  
462.000000	34.411000  
462.500000	27.498000  
463.000000	21.149000  
463.500000	17.295000  
464.000000	13.744000  
464.500000	11.744000  
465.000000	10.100000  
465.500000	9.217000   
466.000000	8.550000   
466.500000	7.929000   
467.000000	7.293000   
467.500000	7.047000   
468.000000	6.837000   
468.500000	6.976000   
469.000000	7.414000   
469.500000	7.055000   
470.000000	6.949000   
470.500000	7.078000   
471.000000	7.021000   
471.500000	7.305000   
472.000000	7.132000   
472.500000	7.342000   
473.000000	7.291000   
473.500000	7.402000   
474.000000	7.543000   
474.500000	7.438000   
475.000000	7.707000   
475.500000	7.783000   
476.000000	8.166000   
476.500000	7.826000   
477.000000	8.148000   
477.500000	8.811000   
478.000000	8.770000   
478.500000	8.494000   
479.000000	8.910000   
479.500000	8.776000   
480.000000	9.350000   
480.500000	9.045999   
481.000000	8.762000   
481.500000	9.080000   
482.000000	9.302000   
482.500000	9.433999   
483.000000	9.769000   
483.500000	9.863000   
484.000000	9.932000   
484.500000	10.424000  
485.000000	9.929000   
485.500000	10.127000  
486.000000	10.358000  
486.500000	10.807000  
487.000000	11.306000  
487.500000	10.813000  
488.000000	11.534000  
488.500000	10.933000  
489.000000	11.408000  
489.500000	11.201000  
490.000000	11.570000  
490.500000	11.380000  
491.000000	11.440000  
491.500000	11.566000  
492.000000	11.505000  
492.500000	11.956000  
493.000000	11.957000  
493.500000	11.770000  
494.000000	12.453000  
494.500000	12.242000  
495.000000	12.018000  
495.500000	12.234000  
496.000000	12.356000  
496.500000	12.397000  
497.000000	12.456000  
497.500000	12.760000  
498.000000	12.465000  
498.500000	12.229000  
499.000000	12.444000  
499.500000	12.853000  
500.000000	13.006000  
500.500000	12.787000  
501.000000	13.179000  
501.500000	12.953000  
502.000000	13.540000  
502.500000	13.164000  
503.000000	13.800000  
503.500000	13.462000  
504.000000	13.237000  
504.500000	13.171000  
505.000000	14.234000  
505.500000	13.653000  
506.000000	13.351000  
506.500000	14.025000  
507.000000	13.434000  
507.500000	14.149000  
508.000000	14.354000  
508.500000	14.671000  
509.000000	14.226000  
509.500000	14.659000  
510.000000	14.935000  
510.500000	14.560000  
511.000000	14.585000  
511.500000	14.245000  
512.000000	14.914000  
512.500000	15.105000  
513.000000	15.421000  
513.500000	15.485000  
514.000000	15.635000  
514.500000	15.454000  
515.000000	15.849000  
515.500000	16.089000  
516.000000	16.504000  
516.500000	15.836000  
517.000000	16.572000  
517.500000	16.451000  
518.000000	16.745000  
518.500000	17.047000  
519.000000	17.270000  
519.500000	17.089000  
520.000000	17.716000  
520.500000	17.492000  
521.000000	17.433000  
521.500000	17.260000  
522.000000	17.299000  
522.500000	17.843000  
523.000000	18.100000  
523.500000	18.091000  
524.000000	17.962000  
524.500000	17.430000  
525.000000	16.826000  
525.500000	17.927000  
526.000000	17.881000  
526.500000	17.387000  
527.000000	17.858000  
527.500000	16.632000  
528.000000	16.886000  
528.500000	16.737000  
529.000000	16.830000  
529.500000	15.933000  
530.000000	16.029000  
530.500000	15.732000  
531.000000	15.838000  
531.500000	15.432000  
532.000000	14.716000  
532.500000	14.541000  
533.000000	14.258000  
533.500000	14.184000  
534.000000	13.740000  
534.500000	13.525000  
535.000000	13.086000  
535.500000	13.148000  
536.000000	12.603000  
536.500000	12.395000  
537.000000	12.096000  
537.500000	12.503000  
538.000000	11.742000  
538.500000	11.264000  
539.000000	11.225000  
539.500000	10.296000  
540.000000	10.428000  
540.500000	10.608000  
541.000000	10.117000  
541.500000	9.962999   
542.000000	9.851000   
542.500000	9.353000   
543.000000	9.117000   
543.500000	9.317000   
544.000000	9.404999   
544.500000	9.036000   
545.000000	8.625999   
545.500000	8.486000   
546.000000	8.449000   
546.500000	8.257000   
547.000000	8.292000   
547.500000	7.863000   
548.000000	8.333000   
548.500000	7.994000   

